   9.2112365311485778e-01	  -3.8927010631737335e-01	   6.9693756865532175e-01	  -7.1713180475893601e-01	   3.6280770535069695e-01	  -9.3186402921143052e-01	   0.0000000000000000e+00	   0.0000000000000000e+00	   0.0000000000000000e+00	   0.0000000000000000e+00	   0.0000000000000000e+00	   0.0000000000000000e+00	   0.0000000000000000e+00	   0.0000000000000000e+00	   0.0000000000000000e+00	   0.0000000000000000e+00	   0.0000000000000000e+00	   0.0000000000000000e+00	   1.6499929999999999e-01	   8.4286755000000002e-01	   3.1710909999999998e-01	   2.0740575999999999e-01	   4.4222922999999997e-01	   3.1273319999999999e-01	
   2.0530877536920067e-01	   9.7869724979505235e-01	  -9.1569661351279819e-01	   4.0187026762525374e-01	  -5.8130987602927453e-01	  -8.1368226478818473e-01	   8.4294743327237920e-01	  -5.3799593375741028e-01	   4.2112075052098441e-01	  -9.0700458294357189e-01	  -1.3298212177357743e-01	  -9.9111843655972687e-01	  -6.4531462696128561e-01	  -7.6391690139033896e-01	   6.9959964599506164e-01	   7.1453504835213255e-01	  -3.5347063554353564e-01	   9.3544562097881934e-01	   1.0462524000000001e-02	   7.3212953999999997e-01	   1.6711422000000001e-01	   6.0415582999999995e-01	   3.1715731000000003e-01	   6.8973883000000002e-01	
  -9.7094181742606167e-01	  -2.3931566428751863e-01	   8.8545602565324733e-01	   4.6472317204369717e-01	  -7.4851074817118124e-01	  -6.6312265824070471e-01	  -8.4436580523597460e-01	   5.3576710140526940e-01	   4.2590722610359161e-01	  -9.0476683999400864e-01	   1.2512280938641571e-01	   9.9214126139942926e-01	  -6.3720606950548819e-01	  -7.7069347018472067e-01	   9.4804752928443758e-01	  -3.1812871957381245e-01	   6.9161260973203686e-01	   7.2226864673723823e-01	   1.9300676999999999e-02	   6.5476144999999997e-01	   6.1597751000000001e-01	   8.3774126000000004e-01	   7.6649668999999998e-01	   1.2934366000000000e-01	
   6.9790076180819149e-01	  -7.1619447545170711e-01	  -2.5869053335091940e-02	  -9.9966534004112906e-01	  -7.3400882586782690e-01	  -6.7913992928418965e-01	  -3.7858021695602978e-01	  -9.2556848440810979e-01	  -7.1335403865905089e-01	   7.0080383526977175e-01	   9.1870367040003675e-01	   3.9494754840801399e-01	   1.7747968942357306e-02	  -9.9984249239488776e-01	  -9.2709845700442173e-01	  -3.7481789047485498e-01	   3.9867561336617424e-01	   9.1709201027329024e-01	   7.1068889999999996e-01	   6.1279459000000001e-02	   7.9750249999999995e-02	   5.3196684999999999e-01	   4.5338665000000000e-01	   4.7098298999999999e-01	
  -1.4959407015202205e-02	   9.9988810181027432e-01	  -9.9955243228350699e-01	  -2.9915466169275668e-02	   4.4864830350331071e-02	  -9.9899306654132292e-01	  -1.4716638954229214e-01	   9.8911174989941675e-01	  -9.5668410757817268e-01	  -2.9112801017311163e-01	   4.2874988163183131e-01	  -9.0342323359579957e-01	   8.3048896338528921e-01	   5.5703508120694489e-01	  -9.8679954816504567e-01	  -1.6194644713997816e-01	   9.9120259200528760e-01	  -1.3235339663944964e-01	   6.9912587999999998e-01	   7.2579974999999997e-01	   6.6340076999999997e-01	   3.0489387000000001e-01	   3.6399502000000000e-01	   7.2439869999999995e-01	
  -6.5486073394529998e-01	  -7.5574957435424539e-01	  -1.4231483827324606e-01	   9.8982144188093835e-01	   8.4125353283114945e-01	  -5.4064081745564707e-01	   2.0745064768567686e-01	  -9.7824548492430730e-01	  -9.1392845754958629e-01	  -4.0587531888627321e-01	  -5.8664074859974347e-01	   8.0984728935913131e-01	   6.7053045103793207e-01	   7.4188200829435624e-01	  -8.7515989224637758e-01	   4.8383381754824539e-01	   6.0345732544463737e-01	  -7.9739529492417061e-01	   9.2923156000000007e-02	   2.8058377999999998e-02	   9.1785897000000005e-01	   9.6600699000000001e-01	   7.4839339999999999e-01	   7.3308368999999998e-02	
   9.7551196798043527e-01	   2.1994635783967467e-01	   9.0324719934612352e-01	   4.2912060877262015e-01	   7.8674493803347179e-01	   6.1727822128980758e-01	  -8.7275182946866620e-02	   9.9618424121323612e-01	  -9.8476608488318196e-01	  -1.7388432380134136e-01	   2.5916646338296495e-01	  -9.6583266887052766e-01	   9.3952848387230059e-01	   3.4247076954481281e-01	  -3.0424508106448162e-01	   9.5259379099806596e-01	   1.3396911011978088e-01	  -9.9098550823597520e-01	   2.1128225000000000e-01	   8.1354989000000003e-02	   2.7375570999999999e-01	   2.8627531000000001e-01	   2.4856544000000000e-01	   1.4113587999999999e-01	
  -7.5814229506715602e-01	   6.5208915067673479e-01	   1.4955947913938927e-01	  -9.8875273056490443e-01	   5.3136756153958631e-01	   8.4714137813205292e-01	   0.0000000000000000e+00	   0.0000000000000000e+00	   0.0000000000000000e+00	   0.0000000000000000e+00	   0.0000000000000000e+00	   0.0000000000000000e+00	   0.0000000000000000e+00	   0.0000000000000000e+00	   0.0000000000000000e+00	   0.0000000000000000e+00	   0.0000000000000000e+00	   0.0000000000000000e+00	   6.8432252000000005e-01	   4.0239464000000003e-01	   3.0524896999999999e-02	   2.9940380999999999e-01	   8.7777680999999996e-01	   6.3427180000000005e-01	
  -1.6228623808852688e-01	  -9.8674372403733790e-01	  -9.4732635385414798e-01	   3.2026985386296614e-01	   4.6976229850674750e-01	   8.8279294452417179e-01	   9.0309592320404997e-01	  -4.2943888213833725e-01	   6.3116449301555055e-01	  -7.7564900744887377e-01	   2.3690823782293791e-01	  -9.7153203079035444e-01	  -2.0326276551284600e-01	  -9.7912422508896679e-01	  -5.7030616181748472e-01	  -8.2143221375412889e-01	   2.7718608179774384e-01	  -9.6081625509647495e-01	   6.1183394999999996e-01	   9.8822667000000003e-02	   9.7448000000000007e-02	   8.4906601999999998e-01	   6.3877778999999996e-02	   8.6474401000000001e-01	
   8.7630668004386969e-01	   4.8175367410170422e-01	   5.3582679497901797e-01	   8.4432792550200153e-01	   6.2790519529351191e-02	   9.9802672842826923e-01	  -8.2250880069051879e-01	   5.6875238266458661e-01	   3.5304145442671114e-01	  -9.3560768031064834e-01	   2.4174939414141750e-01	   9.7033871943371275e-01	  -7.5072346291254488e-01	  -6.6061659245934545e-01	  -9.9476850644273651e-01	   1.0215487550620070e-01	  -4.4677140643721036e-01	  -8.9464814893348821e-01	   2.9009073000000002e-01	   9.3451954999999998e-01	   4.8748292999999998e-01	   8.8628922999999998e-02	   2.2435531000000000e-01	   4.7303903000000003e-01	
  -8.7910746109224480e-01	   4.7662361654868435e-01	   5.4565985629610536e-01	  -8.3800675488143506e-01	  -8.0279840684612344e-02	   9.9677236477525466e-01	   0.0000000000000000e+00	   0.0000000000000000e+00	   0.0000000000000000e+00	   0.0000000000000000e+00	   0.0000000000000000e+00	   0.0000000000000000e+00	   0.0000000000000000e+00	   0.0000000000000000e+00	   0.0000000000000000e+00	   0.0000000000000000e+00	   0.0000000000000000e+00	   0.0000000000000000e+00	   2.2582717999999999e-01	   8.9524625999999996e-01	   9.5081552000000003e-01	   8.7680970999999996e-01	   4.0448233000000000e-01	   1.7514840000000001e-01	
   5.5152200485057597e-02	  -9.9847795908655690e-01	  -9.9391646956331203e-01	  -1.1013651315890584e-01	  -1.6478556127457045e-01	   9.8632941697762655e-01	   9.5530317692811595e-01	  -2.9562787444868710e-01	   8.2520831969790254e-01	  -5.6482849529867396e-01	   6.2134508194172011e-01	  -7.8353703750801540e-01	   3.6193754179727161e-01	  -9.3220234704582683e-01	  -2.4249084439067009e-01	  -9.7015369420865472e-01	   3.4786498906657387e-01	  -9.3754463860752379e-01	   5.0396200000000002e-01	   1.5087758000000000e-02	   5.2151011999999997e-02	   5.0691620000000004e-01	   1.2552785000000000e-01	   8.4033471999999998e-01	
   7.3611353290842896e-01	   6.7685808458573593e-01	   8.3726266661857521e-02	   9.9648879184407668e-01	  -6.1284945700904281e-01	   7.9019968555025477e-01	  -8.8931108688389493e-01	   4.5730273424219259e-01	   5.8174841850922909e-01	  -8.1336878324780248e-01	  -1.4539954983096418e-01	   9.8937301909287634e-01	  -3.2313755512402154e-01	  -9.4635200663837027e-01	  -9.6416297879572910e-01	  -2.6531066755738719e-01	  -3.4510487324574857e-01	  -9.3856413018079687e-01	   5.5095393000000004e-01	   6.6784257999999996e-01	   3.7648691000000001e-01	   9.1186986000000003e-01	   3.7153010000000000e-02	   9.2893168999999998e-01	
  -9.6062375660343613e-01	   2.7785247569367133e-01	   8.4559600350179553e-01	  -5.3382337796483903e-01	  -6.6397546230205784e-01	   7.4775436171296827e-01	   0.0000000000000000e+00	   0.0000000000000000e+00	   0.0000000000000000e+00	   0.0000000000000000e+00	   0.0000000000000000e+00	   0.0000000000000000e+00	   0.0000000000000000e+00	   0.0000000000000000e+00	   0.0000000000000000e+00	   0.0000000000000000e+00	   0.0000000000000000e+00	   0.0000000000000000e+00	   5.9096868999999996e-01	   3.3959106999999999e-01	   4.7529394000000003e-01	   6.2421705999999999e-01	   5.4857096000000005e-01	   5.1221454000000000e-01	
   4.2035722830956318e-01	  -9.0735869456786589e-01	  -6.4659960121580362e-01	  -7.6282957186226319e-01	  -9.6396286069585124e-01	   2.6603684556668256e-01	   8.1294646183493846e-01	  -5.8233843269189678e-01	   3.2176389961989033e-01	  -9.4681993689476207e-01	  -2.8979281435053511e-01	  -9.5708940269485598e-01	  -7.9293598580280233e-01	  -6.0930495026623421e-01	  -1.8666191862301487e-01	  -9.8242420986861623e-01	   8.7011776154501741e-01	  -4.9284387085961440e-01	   6.6383354999999999e-01	   8.5298914000000003e-01	   1.7946259000000001e-01	   1.7178346999999999e-01	   8.6398741000000001e-01	   6.5807101000000001e-01	
   4.1171789747590759e-01	   9.1131134794757063e-01	  -6.6097674579603616e-01	   7.5040638424581796e-01	  -9.5598980959513036e-01	  -2.9339987039919824e-01	   0.0000000000000000e+00	   0.0000000000000000e+00	   0.0000000000000000e+00	   0.0000000000000000e+00	   0.0000000000000000e+00	   0.0000000000000000e+00	   0.0000000000000000e+00	   0.0000000000000000e+00	   0.0000000000000000e+00	   0.0000000000000000e+00	   0.0000000000000000e+00	   0.0000000000000000e+00	   4.5499264000000000e-01	   9.2199936000000005e-01	   8.3559209000000001e-01	   9.5727669999999998e-01	   7.9517086999999997e-01	   6.9727063000000006e-02	
  -9.5151555935664911e-01	  -3.0760061817591206e-01	   8.1076371939559355e-01	   5.8537354852420798e-01	  -5.9139302857690257e-01	  -8.0638346073728406e-01	   9.9647873006170562e-01	   8.3845933321840205e-02	   9.8593971893077903e-01	   1.6710137831477154e-01	   9.6845718801336977e-01	   2.4918000518748815e-01	   9.4415425873060721e-01	   3.2950377193722324e-01	  -9.2237395530033273e-01	  -3.8629818351063949e-01	  -9.7395607714300148e-01	  -2.2673676322161734e-01	   2.1536032999999999e-01	   2.0308403999999999e-01	   1.0015706000000001e-01	   5.1484876000000002e-01	   6.2204050000000000e-01	   7.9337672999999997e-02	
   9.0604228181799928e-01	  -4.2318717319648663e-01	   6.4182523288393367e-01	  -7.6685094407810728e-01	   2.5699931524305764e-01	  -9.6641158517714365e-01	   0.0000000000000000e+00	   0.0000000000000000e+00	   0.0000000000000000e+00	   0.0000000000000000e+00	   0.0000000000000000e+00	   0.0000000000000000e+00	   0.0000000000000000e+00	   0.0000000000000000e+00	   0.0000000000000000e+00	   0.0000000000000000e+00	   0.0000000000000000e+00	   0.0000000000000000e+00	   7.7087192000000004e-01	   3.5364733999999998e-01	   7.2887968999999997e-01	   5.4184500999999996e-01	   7.1009526999999995e-01	   1.4152586000000000e-01	
  -7.3869364986402686e-01	   6.7404131301468639e-01	   9.1336616698875245e-02	  -9.9582007533991934e-01	   6.0375409235297939e-01	   7.9717061910674436e-01	   0.0000000000000000e+00	   0.0000000000000000e+00	   0.0000000000000000e+00	   0.0000000000000000e+00	   0.0000000000000000e+00	   0.0000000000000000e+00	   0.0000000000000000e+00	   0.0000000000000000e+00	   0.0000000000000000e+00	   0.0000000000000000e+00	   0.0000000000000000e+00	   0.0000000000000000e+00	   5.5639775000000002e-01	   2.6303924999999999e-02	   9.2759762000000001e-01	   6.2920050000000005e-01	   9.1344391000000003e-01	   8.4908245000000004e-01	
   9.6095807382712972e-01	  -2.7669401935432703e-01	   8.4688083930709457e-01	  -5.3178270375644132e-01	   6.6667588637616815e-01	  -7.4534774603841836e-01	   9.6787975683562522e-01	   2.5141355633261098e-01	   8.7358244738437807e-01	   4.8667618353677461e-01	   7.2316577666489923e-01	   6.9067449602591602e-01	   5.2629258475615937e-01	   8.5030354299548860e-01	   9.9965649424686875e-01	  -2.6208653343123410e-02	   8.6052723940319742e-01	  -5.0940442699795230e-01	   2.2983102999999999e-01	   1.8224955000000001e-01	   7.4102641999999996e-01	   5.9038179000000002e-01	   4.2024221000000000e-01	   2.7278266000000001e-01	
  -9.7656095834010792e-01	  -2.1524101524999850e-01	   9.0734261070829980e-01	   4.2039194425327264e-01	  -7.9558978057211804e-01	  -6.0583570466687497e-01	   0.0000000000000000e+00	   0.0000000000000000e+00	   0.0000000000000000e+00	   0.0000000000000000e+00	   0.0000000000000000e+00	   0.0000000000000000e+00	   0.0000000000000000e+00	   0.0000000000000000e+00	   0.0000000000000000e+00	   0.0000000000000000e+00	   0.0000000000000000e+00	   0.0000000000000000e+00	   1.1214706000000001e-01	   6.9831628999999995e-01	   8.2169175000000005e-01	   8.4906373000000002e-01	   4.9740588000000002e-01	   4.3108801000000002e-01	
   9.6420246251159969e-01	   2.6516713839872241e-01	   8.5937277742686558e-01	   5.1134961564240466e-01	   6.9301623390923361e-01	   7.2092197881481068e-01	   9.0543134108896972e-01	  -4.2449274030756956e-01	   6.3961182685234064e-01	  -7.6869806227842896e-01	   2.5281784723759326e-01	  -9.6751389453493064e-01	  -1.8179342190122297e-01	  -9.8333674382352043e-01	   9.8558065393155503e-01	  -1.6920630778977599e-01	   7.6045760349477465e-01	   6.4938758325593515e-01	   3.7068087999999999e-01	   6.9184524999999997e-01	   1.1459241000000001e-01	   2.1402615000000000e-01	   8.9214740000000003e-01	   1.6750271000000000e-01	
  -9.6029368567695550e-01	  -2.7899110603918664e-01	   8.4432792550206259e-01	   5.3582679497892172e-01	  -6.6131186532375175e-01	  -7.5011106963037155e-01	  -8.9080372260977336e-01	   4.5438830066867908e-01	   5.8706254443086014e-01	  -8.0954157949197669e-01	  -1.5511127735777896e-01	   9.8789700456901786e-01	  -3.1071513785272864e-01	  -9.5050307895827446e-01	   9.8220348457451279e-01	  -1.8781990014288896e-01	   7.2866289542487028e-01	   6.8487253181233998e-01	   9.8703786999999998e-01	   4.3437271999999999e-01	   3.2516414000000000e-02	   7.7027080000000003e-01	   2.0011614000000000e-01	   3.8183534000000002e-01	
   9.3752573465878453e-01	   3.4791593359963618e-01	   7.5790900629498714e-01	   6.5236028249499156e-01	   4.8359266120364963e-01	   8.7529317261702222e-01	   6.0208078987400238e-01	  -7.9843517110952555e-01	  -2.7499744492939482e-01	  -9.6144495696961485e-01	  -9.3322214758684796e-01	  -3.5929990711575654e-01	  -8.4875281056460894e-01	   5.2878981321379204e-01	   8.4225455282592132e-01	  -5.3908002026045021e-01	   2.8667791687520927e-01	   9.5802702048329025e-01	   4.3290904999999998e-02	   9.4396088000000000e-01	   2.3491607000000000e-01	   5.2444398000000003e-01	   1.5855799000000001e-01	   7.6715111000000002e-01	
  -7.5940491665471488e-01	  -6.5061830020423306e-01	   1.5339165487870893e-01	   9.8816547208125571e-01	   5.2643216287732542e-01	  -8.5021713572963298e-01	  -8.4764911440242041e-01	   5.3055723428560697e-01	   4.3701804229441515e-01	  -8.9945273956398442e-01	   1.0677320134493935e-01	   9.9428340199087761e-01	  -6.1803046141831353e-01	  -7.8615415076120188e-01	   9.8889915100717363e-01	   1.4858825369890888e-01	   2.9851865914325232e-01	   9.5440379826534361e-01	   1.2181277000000000e-01	   1.9757331000000000e-02	   7.9871990999999998e-01	   7.6268398000000004e-01	   8.4783151000000001e-02	   9.3325725999999998e-01	
   8.6402002290806668e-01	   5.0345744608054399e-01	   4.9306119997211229e-01	   8.6999462819149675e-01	  -1.1990524318100082e-02	   9.9992811107928004e-01	  -7.4770448114479338e-01	  -6.6403163243628327e-01	   1.1812398224800949e-01	   9.9299885438900282e-01	   5.7106081942978326e-01	  -8.2090775396032445e-01	  -9.7209344963574384e-01	   2.3459395809628064e-01	  -3.1171997314412242e-01	  -9.5017401476941454e-01	  -9.8034331271025421e-01	   1.9729923776914249e-01	   9.8265237000000005e-02	   4.4245842000000002e-01	   7.7299152000000004e-01	   6.9397357000000004e-01	   7.6429570999999996e-01	   5.0760293999999995e-01	
  -7.5574957435424173e-01	  -6.5486073394530409e-01	   1.4231483827323524e-01	   9.8982144188093990e-01	   5.4064081745566117e-01	  -8.4125353283114024e-01	   6.8123904543951808e-01	   7.3206103773432318e-01	  -7.1826725937308350e-02	   9.9741712509918679e-01	  -7.7910138586867372e-01	   6.2689794268087362e-01	  -9.8968184288225358e-01	  -1.4328241297935457e-01	  -3.5448090160946376e-02	  -9.9937151895776044e-01	  -9.9424414708786568e-01	   1.0713811638031807e-01	   7.1925349000000005e-01	   8.1300481000000002e-01	   2.1964269000000000e-01	   7.0672789999999996e-01	   5.1488555000000003e-01	   1.5313890999999999e-01	
   8.6220631184723595e-01	   5.0655727791710470e-01	   4.8679944837842631e-01	   8.7351376466456432e-01	  -2.2763197855972344e-02	   9.9974088484135226e-01	  -9.4044894198972373e-01	  -3.3993497541501838e-01	   7.6888842497918164e-01	   6.3938297594871363e-01	  -5.0575166956990925e-01	  -8.6267911109939910e-01	   1.8237882013393342e-01	   9.8322833867141679e-01	  -6.3866447793854542e-01	  -7.6948533749479942e-01	  -9.8305754956864455e-01	  -1.8329717465387163e-01	   8.8811552999999999e-01	   9.2103995000000005e-01	   4.0514995999999998e-01	   7.1120386999999996e-01	   7.2868982000000004e-01	   2.5699664999999999e-01	
  -9.7880244621477253e-01	  -2.0480666806522024e-01	   9.1610845743204539e-01	   4.0093053540666901e-01	  -8.1457595205028344e-01	  -5.8005690957127165e-01	   6.0816839446430537e-01	  -7.9380803975187164e-01	  -2.6026240794941813e-01	  -9.6553792209750655e-01	  -9.2473513602832802e-01	  -3.8061125600101420e-01	  -8.6452695801674129e-01	   5.0258644914314954e-01	  -7.5785389191713781e-01	   6.5242430864127610e-01	  -4.3269953250720811e-01	  -9.0153819362689436e-01	   7.8680298999999998e-01	   8.4518658000000002e-01	   7.7873101000000000e-01	   2.5016511000000002e-01	   5.1224400999999997e-01	   4.6802475999999998e-01	
   9.1312325022861074e-01	   4.0768361494170685e-01	   6.6758814021612423e-01	   7.4453077508104148e-01	   3.0605725458783095e-01	   9.5201310753274804e-01	  -7.1104240340193736e-01	   7.0314913109837285e-01	   1.1162598871206688e-02	  -9.9993769625234175e-01	   6.9516824114274822e-01	   7.1884707449255014e-01	  -9.9975079277288104e-01	  -2.2323806798926812e-02	  -9.3593173005404484e-01	   3.5218148258822835e-01	  -3.6260697083543530e-01	  -9.3194215737971087e-01	   8.2142579000000004e-01	   5.6989555999999997e-01	   6.4044789000000002e-01	   4.2489619000000001e-01	   4.9166327999999998e-01	   1.1958305000000000e-01	
  -9.5105651629515986e-01	   3.0901699437492808e-01	   8.0901699437497132e-01	  -5.8778525229244027e-01	  -5.8778525229252321e-01	   8.0901699437491104e-01	   7.2319147577249543e-01	  -6.9064758695734263e-01	   4.6011821259999773e-02	  -9.9894089530078700e-01	  -6.5664076193249776e-01	  -7.5420349360680428e-01	  -9.9576582460867569e-01	  -9.1926179847767908e-02	  -4.7437412406869101e-01	   8.8032334424009351e-01	  -9.0121780705639987e-01	  -4.3336643183852358e-01	   8.2810125000000001e-01	   8.8958610000000005e-01	   2.3387036000000000e-01	   6.0726539000000002e-01	   5.9226716999999995e-01	   9.1504801999999996e-02	
  -2.6289541576111336e-01	  -9.6482433653582311e-01	  -8.6177200074358262e-01	   5.0729579018005122e-01	   7.1600723261465538e-01	   6.9809286118932834e-01	  -8.6020361801751399e-01	   5.0995071874601650e-01	   4.7990052890084234e-01	  -8.7732290655191025e-01	   3.4579275519467802e-02	   9.9940195802517251e-01	  -5.3939096472138359e-01	  -8.4205545374217194e-01	   7.1815645167801989e-01	   6.9588167881704999e-01	  -2.6586927608216321e-01	   9.6400909126187517e-01	   8.2067926000000002e-01	   5.2906036000000001e-01	   5.3494701999999998e-02	   7.1422262999999997e-01	   7.9060721000000000e-01	   9.6224510999999999e-02	
   7.0341934965483399e-01	  -7.1077508294197422e-01	  -1.0402437062340715e-02	  -9.9994589318780847e-01	  -7.1805390068126751e-01	  -6.9598749681040706e-01	   7.5859664834450202e-01	  -6.5156053066502428e-01	   1.5093774975902399e-01	  -9.8854326951210503e-01	  -5.2959490619278993e-01	  -8.4825069132577191e-01	  -9.5443559139536449e-01	  -2.9841699327917104e-01	   7.0498570803677926e-02	  -9.9751188038771688e-01	   9.9672455125397574e-01	  -8.0871310905417160e-02	   1.7349624000000000e-01	   6.4909486000000005e-01	   7.9113212000000002e-02	   6.6481904000000003e-01	   6.6355954999999994e-02	   2.9305397999999999e-01	
   7.0586327340720323e-01	   7.0834810598664544e-01	  -3.5140785097355874e-03	   9.9999382560705219e-01	  -7.1082419132698693e-01	   7.0336972427332634e-01	  -9.3755709685030986e-01	   3.4783141052184852e-01	   7.5802661970876251e-01	  -6.5222361488442526e-01	  -4.8382937696849271e-01	   8.7516234721466402e-01	   1.4920871237418581e-01	  -9.8880572417014123e-01	  -9.0817284223472872e-01	  -4.1859537578345818e-01	  -4.1540140054309921e-01	  -9.0963821183305160e-01	   8.6126411999999997e-01	   6.0531637000000005e-01	   8.1055871000000002e-01	   5.9235501000000002e-01	   5.1651091999999998e-01	   9.8904495999999997e-01	
  -5.3606413706004097e-01	   8.4417725683536016e-01	  -4.2527048191614719e-01	  -9.0506630542231981e-01	   9.9200864487101537e-01	   1.2616991916131065e-01	   8.1287249411761978e-02	  -9.9669071586077795e-01	  -9.8678476616613997e-01	  -1.6203649361312528e-01	  -2.4171328821790961e-01	   9.7034771412050314e-01	   9.4748834947512717e-01	   3.1979028692081812e-01	   7.9780845521872235e-01	   6.0291099573777540e-01	  -8.8495881363852336e-01	  -4.6566930128954948e-01	   6.0647854000000001e-01	   2.6190202000000001e-01	   4.6687824000000000e-01	   4.3075291999999998e-01	   2.2676408999999999e-03	   4.7345081000000000e-01	
  -8.4090637834748738e-01	  -5.4118061943727480e-01	   4.1424707429097507e-01	   9.1016446944569718e-01	   1.4422036438135499e-01	  -9.8954559596701208e-01	  -3.9043045589515329e-01	   9.2063242345113105e-01	  -6.9512811821900555e-01	  -7.1888587359976985e-01	   9.3322883209872598e-01	  -3.5928254471884374e-01	  -3.3593798522608520e-02	   9.9943556905926778e-01	   8.2654388586067462e-01	  -5.6287228102504405e-01	  -1.6991296453397087e-01	   9.8545907296207769e-01	   2.7647453000000000e-01	   8.0497854999999996e-01	   3.0320741000000001e-01	   2.9287809999999997e-01	   4.4433749000000000e-01	   5.2317800999999997e-01	
   4.7952997620112109e-01	  -8.7752549930161705e-01	  -5.4010200384910456e-01	  -8.4159956359196264e-01	  -9.9752017830499884e-01	   7.0381061901361619e-02	  -9.4253068739093282e-01	  -3.3411959434665867e-01	   7.7672819334724852e-01	   6.2983594186067160e-01	  -5.2164962859206621e-01	  -8.5315981210425007e-01	   2.0661337268096144e-01	   9.7842266645320419e-01	  -7.4517018194890561e-01	   6.6687435093444314e-01	  -1.5877325423789493e-01	   9.8731507318520606e-01	   3.0860159999999998e-01	   2.4184407999999999e-01	   3.4614645999999999e-01	   2.9824657999999998e-01	   5.2289269000000005e-01	   3.2277284000000001e-01	
   6.5888580579605172e-01	   7.5224297598614209e-01	  -1.3173898984097512e-01	   9.9128443877409855e-01	  -8.3248770674830930e-01	   5.5404351644337568e-01	   9.9191620310271067e-01	  -1.2689462566358800e-01	   9.6779550795539571e-01	  -2.5173767056473201e-01	   9.2802788815923964e-01	  -3.7251072306539273e-01	   8.7325629043728492e-01	  -4.8726117351140580e-01	   7.4901509760931451e-01	   6.6255292886931616e-01	   5.5810391591766462e-01	   8.2977106423239921e-01	   7.6785004999999995e-01	   1.8282825000000000e-01	   9.5235906000000004e-01	   2.8677187999999998e-01	   1.0750802000000000e-01	   6.9395834999999995e-01	
  -9.4905574701069728e-01	   3.1510821802353445e-01	   8.0141362186806531e-01	  -5.9811053049107032e-01	  -5.7211666012239248e-01	   8.2017225459680043e-01	  -9.6429232313632540e-01	   2.6484016980123809e-01	   8.5971936891930278e-01	  -5.1076668519490953e-01	  -6.9374925186465530e-01	   7.2021661709324025e-01	   4.7823478659000840e-01	  -8.7823202452154359e-01	   8.3171385710370760e-01	  -5.5520452078641569e-01	   9.9862048503794443e-01	  -5.2508350408107821e-02	   4.1472973000000002e-01	   7.3647012999999995e-01	   6.2006707999999999e-01	   9.0851057999999996e-01	   9.7236020999999995e-01	   8.7890208999999997e-01	
  -1.0357947651793006e-01	  -9.9462118017075807e-01	  -9.7854258408854311e-01	   2.0604468235146586e-01	   3.0629333373871864e-01	   9.5193717949622181e-01	  -9.9514246425231834e-01	  -9.8445293649941965e-02	   9.8061704831635343e-01	   1.9593418423369272e-01	  -9.5656486764642279e-01	  -2.9151956020922787e-01	   9.2321959089735472e-01	   3.8427280281503268e-01	   5.1605613556555139e-03	   9.9998668421459214e-01	   2.0099210966038020e-01	   9.7959286025076242e-01	   7.9939698000000003e-01	   7.3654421000000003e-01	   1.9862667000000001e-01	   6.7012808999999995e-01	   3.1366692000000002e-01	   2.8261652999999998e-01	
   9.7202291408039310e-01	   2.3488604578105707e-01	   8.8965709099467838e-01	   4.5662923739384742e-01	   7.5751124216147225e-01	   6.5282211819069313e-01	   8.9270639377865224e-01	  -4.5063876276538173e-01	   5.9384941098657207e-01	  -8.0457620961031495e-01	   1.6755993848014672e-01	  -9.8586189043726069e-01	  -2.9468575414180287e-01	  -9.5559421634178854e-01	   9.7357982736055271e-01	  -2.2834692850265459e-01	   7.6188231323729616e-01	   6.4771547825892395e-01	   2.3413262000000001e-01	   2.6721027000000003e-01	   7.6888584000000004e-01	   7.7263203999999996e-01	   6.9289486000000000e-01	   4.4874707000000003e-01	
  -6.9938745647520040e-01	   7.1474274093910861e-01	  -2.1714371450299315e-02	  -9.9976421523903247e-01	   7.2976097451036581e-01	   6.8370236220279457e-01	  -9.6038913554263683e-01	   2.7866235542617995e-01	   8.4469458333666669e-01	  -5.3524859727204799e-01	  -6.6208186583386186e-01	   7.4943151984284206e-01	   4.2701787823661003e-01	  -9.0424318170849571e-01	   4.7251221901972540e-01	  -8.8132411908278963e-01	   8.7085601044743721e-01	  -4.9153820712898111e-01	   4.2911841000000001e-01	   9.6626665000000000e-01	   3.4347333000000002e-01	   1.6947193999999999e-01	   7.7074662999999999e-01	   3.6023817000000002e-01	
  -6.2427799058707423e-01	  -7.8120227244201290e-01	  -2.2055398093712969e-01	   9.7537476976431181e-01	   8.9965198265789670e-01	  -4.3660773023357663e-01	   2.5002135203031996e-02	  -9.9968739775756366e-01	  -9.9874978647057866e-01	  -4.9988638959003663e-02	  -7.4943889593706375e-02	   9.9718775233782653e-01	   9.9500227195005275e-01	   9.9852284972519509e-02	  -7.9656634958478678e-01	   6.0455111505080128e-01	   7.6534978413491594e-01	  -6.4361456472382406e-01	   2.9871193000000001e-01	   3.8529908000000002e-01	   8.0677697999999998e-01	   1.4093933000000000e-01	   5.2821147000000002e-01	   7.3821656999999996e-01	
   8.8649607580084955e-01	  -4.6273611009915200e-01	   5.7175058482061103e-01	  -8.2042749146849614e-01	   1.2721322375977442e-01	  -9.9187539323276164e-01	   0.0000000000000000e+00	   0.0000000000000000e+00	   0.0000000000000000e+00	   0.0000000000000000e+00	   0.0000000000000000e+00	   0.0000000000000000e+00	   0.0000000000000000e+00	   0.0000000000000000e+00	   0.0000000000000000e+00	   0.0000000000000000e+00	   0.0000000000000000e+00	   0.0000000000000000e+00	   2.9750174000000001e-01	   5.5987847999999996e-01	   3.0099556999999999e-01	   1.4465523999999999e-01	   4.8145234999999997e-01	   1.7444746000000000e-01	
   3.4022513023652790e-01	   9.4034401192092332e-01	  -7.6849372151107531e-01	   6.3985732784587057e-01	  -8.6314688321064703e-01	  -5.0495292652260726e-01	  -9.7056766424458096e-01	   2.4082858867422360e-01	   8.8400318175436321e-01	  -4.6748088158572032e-01	  -7.4540214235563917e-01	   6.6661506596507658e-01	   5.6292325070367555e-01	  -8.2650917346222286e-01	  -5.5667323123014889e-01	  -8.3073155329010173e-01	  -1.0374978871180197e-01	  -9.9460342918283584e-01	   2.1782667000000000e-01	   8.5826075999999996e-01	   7.8268795000000002e-01	   5.5574670000000000e-02	   7.9769150000000000e-01	   8.3431641000000001e-01	
  -7.9752851511567713e-01	   6.0328125080876105e-01	   2.7210346484523357e-01	  -9.6226800030927906e-01	   3.6350797056397716e-01	   9.3159108805122148e-01	  -9.9665279989427591e-01	  -8.1750819340850420e-02	   9.8663360707419923e-01	   1.6295436597941940e-01	  -9.7000949402630332e-01	  -2.4306703087591891e-01	   9.4689174921649089e-01	   3.2155250778952749e-01	   8.4417776413215295e-01	  -5.3606333818387453e-01	   7.4554029103897468e-01	  -6.6646055730067100e-01	   5.2828772999999998e-05	   2.6204238000000002e-01	   2.5409383000000002e-01	   9.0209514000000002e-01	   3.1403300000000001e-01	   4.6931322999999997e-03	
  -7.2195609395449045e-01	  -6.9193886897758161e-01	   4.2441203196050208e-02	   9.9909896620468563e-01	   6.6067472339019173e-01	  -7.5067230525262740e-01	  -9.9865698405354220e-01	  -5.1809537742419420e-02	   9.9463154359783368e-01	   1.0347991341410549e-01	  -9.8793449109432141e-01	  -1.5487233873808512e-01	   9.7858381503961844e-01	   2.0584877202088384e-01	   6.8513746245992591e-01	   7.2841379554067598e-01	   7.5683552835540824e-01	   6.5360537254446593e-01	   2.7460917000000001e-01	   1.4870910000000001e-01	   2.9471975000000000e-01	   4.2892738000000002e-01	   4.2410953000000001e-01	   7.5441102000000004e-01	
   8.6782526661299275e-01	  -4.9686950663940738e-01	   5.0624138674382380e-01	  -8.6239182414241977e-01	   1.0832866229987463e-02	  -9.9994132278311376e-01	  -4.2679916428888304e-01	   9.0434643437253126e-01	  -6.3568494672462206e-01	  -7.7194860483565519e-01	   9.6941877231506668e-01	  -2.4541239553687755e-01	  -1.9180929701542895e-01	   9.8143221547819948e-01	   7.8955068138584369e-02	   9.9687817571418003e-01	  -8.1972926521698919e-01	  -5.7275119532552254e-01	   4.8215411000000002e-01	   1.3130475000000000e-01	   2.3355746999999999e-01	   1.2815959000000000e-02	   2.0428346999999999e-02	   3.5746071000000001e-01	
   1.5142777750458328e-01	   9.8846832432811038e-01	  -9.5413925640004482e-01	   2.9936312297337075e-01	  -4.4039415155765255e-01	  -8.9780453957073270e-01	  -8.6932108921772855e-01	  -4.9424775552479955e-01	   5.1143831231739600e-01	   8.5931999435247275e-01	  -1.9887132245142467e-02	  -9.9980223142932834e-01	  -4.7686170538786748e-01	   8.7897833530444580e-01	   3.5690889022842415e-01	  -9.3413919951788482e-01	  -6.2018761118463217e-01	  -7.8445352120638701e-01	   5.7454265999999998e-01	   4.6714443000000000e-01	   4.3695643000000001e-01	   8.0304882000000000e-01	   6.4094145999999996e-01	   8.5049602999999996e-01	
  -9.4668579433865330e-01	  -3.2215835670892190e-01	   7.9242798640521406e-01	   6.0996547964764192e-01	  -5.5367484119374633e-01	  -8.3273295252984902e-01	  -5.6954784867443464e-01	   8.2195817902757273e-01	  -3.5123049614064661e-01	  -9.3628902513101975e-01	   9.6963299560595373e-01	   2.4456462097413956e-01	  -7.5327427716159046e-01	   6.5770651765562083e-01	   8.0398355377520891e-01	  -5.9465153262981307e-01	   2.7438216129724757e-01	   9.6162073062192832e-01	   2.0267938999999999e-01	   7.5787746000000000e-01	   8.9239966999999998e-01	   8.5751299999999997e-01	   3.8246365999999998e-01	   3.6464211000000002e-01	
   4.9184443832463437e-01	  -8.7068309303048086e-01	  -5.1617809697824990e-01	  -8.5648127370066440e-01	  -9.9960309069212627e-01	   2.8171991032739308e-02	  -6.1864457207462564e-01	  -7.8567098294553506e-01	  -2.3455778688520651e-01	   9.7210217807158217e-01	   9.0886037546336540e-01	  -4.1710048898627600e-01	  -8.8996528922302809e-01	  -4.5602827102951848e-01	  -9.8834733360994464e-01	   1.5221546618564324e-01	   3.7979354946068855e-01	   9.2507127281526347e-01	   8.8104267999999997e-01	   2.4045532000000000e-01	   9.3680103000000003e-01	   1.5520083000000001e-01	   3.3954646999999999e-01	   9.0058081000000001e-01	
   6.9165762483750859e-01	   7.2222553956789448e-01	  -4.3219460008272467e-02	   9.9906560258903587e-01	  -7.5144376294967130e-01	   6.5979714391927924e-01	   3.8985606263751756e-02	   9.9923977227903005e-01	  -9.9696024500849545e-01	   7.7911936650302466e-02	  -1.1671980540878113e-01	  -9.9316488410803982e-01	   9.8785946025479854e-01	  -1.5535020690394383e-01	  -6.9471179186068566e-01	   7.1928820805690630e-01	   7.4864117552315923e-01	  -6.6297540701846724e-01	   2.9061355999999999e-01	   1.0857216000000000e-01	   8.1842287000000002e-01	   6.5954285999999995e-01	   1.9406074000000001e-01	   7.8209318000000000e-02	
  -9.1569661351286313e-01	   4.0187026762510575e-01	   6.7700057599785179e-01	  -7.3598248627163465e-01	  -3.2415765606211766e-01	   9.4600307294232078e-01	  -6.1132404085623537e-01	  -7.9138038709030678e-01	  -2.5256583414240774e-01	   9.6757971218083616e-01	   9.2012317347656059e-01	  -3.9162909191149631e-01	  -8.7242099884789959e-01	  -4.8875515421244736e-01	   8.7781960192429553e-01	   4.7899138455453594e-01	   2.4175510601781255e-01	  -9.7033729636364907e-01	   7.8175709000000004e-01	   6.6663192999999998e-01	   2.9098837000000000e-01	   4.6015492000000002e-01	   5.7753321000000002e-01	   5.9121053999999995e-01	
   9.9161127207924943e-02	  -9.9507138982630472e-01	  -9.8033414170170741e-01	  -1.9734480133506574e-01	  -2.9358320427103479e-01	   9.5593352392828645e-01	   4.1407145439089282e-01	   9.1024437963582661e-01	  -6.5708966131722157e-01	   7.5381242825388539e-01	  -9.5823559784457490e-01	  -2.8597996262579312e-01	  -1.3646635398003812e-01	  -9.9064470635611579e-01	   9.4681793208783027e-01	  -3.2176979888877832e-01	  -8.6469834776377863e-01	  -5.0229151632751212e-01	   8.6923024000000004e-01	   9.2183324000000000e-01	   7.8424636000000003e-01	   4.4645807999999998e-01	   4.4735416000000000e-01	   4.7508096999999999e-01	
   8.0728773238199003e-01	   5.9015804420980700e-01	   3.0342696570891092e-01	   9.5285469851425064e-01	  -3.1738199820060103e-01	   9.4829777349638111e-01	   0.0000000000000000e+00	   0.0000000000000000e+00	   0.0000000000000000e+00	   0.0000000000000000e+00	   0.0000000000000000e+00	   0.0000000000000000e+00	   0.0000000000000000e+00	   0.0000000000000000e+00	   0.0000000000000000e+00	   0.0000000000000000e+00	   0.0000000000000000e+00	   0.0000000000000000e+00	   5.8471562999999997e-02	   6.2220288999999995e-01	   7.9958209999999996e-01	   7.1316312999999998e-01	   1.3083591000000000e-01	   4.0891724000000002e-01	
  -9.1514561724298638e-01	   4.0312342928804495e-01	   6.7498300151809321e-01	  -7.3783327904183460e-01	  -3.2026985386261214e-01	   9.4732635385426767e-01	   9.1862282439716947e-01	  -3.9513555458420491e-01	   6.8773578700686566e-01	  -7.2596107834376844e-01	   3.4491675780134301e-01	  -9.3863327779693051e-01	  -5.4038974540094292e-02	  -9.9853882710220887e-01	  -6.8138525184882470e-01	   7.3192495418786874e-01	  -9.9996205144406136e-01	   8.7118121986445255e-03	   6.0308786999999997e-01	   5.8031798000000001e-01	   6.4032250000000002e-01	   5.0770152999999996e-01	   3.3413441999999999e-01	   4.0280227000000002e-01	
   2.8042738930602873e-01	  -9.5987524154288151e-01	  -8.4272095865400998e-01	  -5.3835061609072787e-01	  -7.5307146600366426e-01	   6.5793872593965153e-01	   5.0441892529018117e-01	   8.6345905971800341e-01	  -4.9112309561819734e-01	   8.7109018187005127e-01	  -9.9988249344401703e-01	   1.5329687021435908e-02	  -5.1759620990079802e-01	  -8.5562501336527619e-01	   9.7026585584488600e-01	  -2.4204166786235567e-01	  -6.8736009117352959e-01	  -7.2631680764107132e-01	   4.8937023000000002e-01	   8.3442022999999999e-01	   5.1059741999999997e-01	   5.0578279999999998e-01	   2.8213843999999999e-01	   9.8950322999999996e-01	
   5.7357643635102018e-01	   8.1915204428900990e-01	  -3.4202014332572817e-01	   9.3969262078588678e-01	  -9.6592582628909285e-01	   2.5881904510242920e-01	  -9.8328597230302317e-01	  -1.8206783535841334e-01	   9.3370260665580340e-01	   3.5804949703100841e-01	  -8.5290737855181431e-01	  -5.2206226028307401e-01	   7.4360111535168383e-01	   6.6862349737930371e-01	  -4.1484842437439712e-01	  -9.0989053451175106e-01	  -7.1313090344063501e-01	  -7.0103089415370534e-01	   9.2398216000000000e-01	   1.5579944000000001e-01	   4.4122167000000001e-01	   7.7711441999999997e-01	   2.6503160999999997e-01	   7.9971183999999995e-01	
  -9.8184441002763667e-01	   1.8968804521498456e-01	   9.2803689100503595e-01	  -3.7248829368680436e-01	  -8.4053125743780643e-01	   5.4176305269925884e-01	  -4.1884135844861625e-01	  -9.0805942341507462e-01	  -6.4914383290583555e-01	   7.6066568491047415e-01	   9.6261792805425972e-01	   2.7086292582877447e-01	  -1.5722456840064142e-01	  -9.8756287652545549e-01	   5.8348506344780660e-01	   8.1212387031370348e-01	   2.3898902951450407e-01	  -9.7102226739231656e-01	   6.9464663999999998e-01	   2.9618580000000000e-01	   3.0666164000000001e-01	   7.8768561000000004e-01	   7.5464668000000001e-01	   9.6141726999999999e-01	
   2.7821746391634461e-01	  -9.6051811163140355e-01	  -8.4519008554391495e-01	  -5.3446582612761095e-01	  -7.4851074817087671e-01	   6.6312265824104843e-01	   0.0000000000000000e+00	   0.0000000000000000e+00	   0.0000000000000000e+00	   0.0000000000000000e+00	   0.0000000000000000e+00	   0.0000000000000000e+00	   0.0000000000000000e+00	   0.0000000000000000e+00	   0.0000000000000000e+00	   0.0000000000000000e+00	   0.0000000000000000e+00	   0.0000000000000000e+00	   7.1584581999999997e-01	   1.7961534000000001e-01	   2.1527963000000000e-01	   7.1880263000000000e-02	   4.2734028000000002e-01	   7.7789379999999997e-01	
   8.5311150583286910e-01	   5.2172862545156029e-01	   4.5559848276885095e-01	   8.9018538659018720e-01	  -7.5758890452659364e-02	   9.9712616579717828e-01	  -4.3472405838166062e-01	  -9.0056370849828193e-01	  -6.2202998612835714e-01	   7.8299342037922381e-01	   9.7554685839127564e-01	   2.1979155371149345e-01	  -2.2615739271431179e-01	  -9.7409077283416690e-01	   9.8981769698614025e-02	  -9.9508924688558997e-01	  -8.4071796183412284e-01	   5.4147327602521478e-01	   4.7729588000000001e-01	   2.5766781000000000e-01	   2.0087194999999999e-01	   8.5330625000000004e-01	   4.6781430000000002e-01	   7.0114999000000000e-01	
  -7.4266796216658282e-01	   6.6965983750807034e-01	   1.0311140405732969e-01	  -9.9466981373384711e-01	   5.8951288951179881e-01	   8.0775896968059080e-01	  -2.0495657909487361e-01	   9.7877106653482904e-01	  -9.1598560137145368e-01	  -4.0121113902803901e-01	   5.8043112980938072e-01	  -8.1430934143494016e-01	   6.7805924383964711e-01	   7.3500725291904845e-01	  -5.0322898844429054e-01	  -8.6415310286391733e-01	   8.0765835830233812e-01	   5.8965072395815132e-01	   3.1790213000000000e-01	   8.8510661999999996e-01	   2.6729351000000001e-01	   7.2626886000000002e-01	   5.1450752000000000e-01	   7.7677015999999999e-01	
  -5.4473906004356309e-01	  -8.3860560245138804e-01	  -4.0651871292571079e-01	   9.1364245525327004e-01	   9.8763230318210460e-01	  -1.5678786212973087e-01	   6.1552626186744530e-01	  -7.8811637525906608e-01	  -2.4225484190297816e-01	  -9.7021265275946744e-01	  -9.1375469637910289e-01	  -4.0626635948000117e-01	  -8.8262518314912608e-01	   4.7007742561302768e-01	  -9.9622000499773355e-01	  -8.6865998194436148e-02	   3.2561761035413306e-01	  -9.4550154512156348e-01	   3.2520912000000002e-01	   2.6895616999999999e-01	   7.7605791000000002e-01	   2.0555739000000001e-01	   4.2505437000000001e-01	   8.3553280999999993e-02	
   9.0488743275958894e-01	  -4.2565095328656377e-01	   6.3764253193247900e-01	  -7.7033239674230081e-01	   2.4910199471782055e-01	  -9.6847725643279969e-01	  -6.6939786573035898e-01	   7.4290409701094007e-01	  -1.0381299471128057e-01	  -9.9459683396292575e-01	   8.0838225991997581e-01	   5.8865789882296893e-01	  -9.7844572425815124e-01	   2.0650415172809922e-01	  -2.8951187912229165e-01	   9.5717442080692883e-01	  -9.2194755330869305e-01	  -3.8731474145469164e-01	   2.1080185000000001e-01	   9.0149820000000003e-01	   3.2529048999999999e-01	   4.4614658000000001e-01	   7.9254844000000002e-01	   4.1162875999999998e-01	
   1.3173898984082469e-01	   9.9128443877411854e-01	  -9.6528967711143820e-01	   2.6118162121806243e-01	  -3.8607156377369789e-01	  -9.2246883288560566e-01	  -8.1830694463960285e-01	  -5.7478147530570078e-01	   3.3925251129080403e-01	   9.4069534578570280e-01	   2.6308157268822241e-01	  -9.6477359318748535e-01	  -7.6981546716576577e-01	   6.3826651683474189e-01	   4.6196900189961837e-01	  -8.8689607129802439e-01	  -6.7757486243272458e-01	  -7.3545380942604022e-01	   2.1752021999999999e-01	   9.5274444999999999e-02	   7.1571107000000000e-01	   6.8751200000000002e-03	   8.7835876000000002e-01	   5.6977095000000000e-01	
  -8.0901699437494745e-01	  -5.8778525229247303e-01	   3.0901699437494773e-01	   9.5105651629515353e-01	   3.0901699437494701e-01	  -9.5105651629515375e-01	  -1.4412934697023577e-01	   9.8955885693673284e-01	  -9.5845346268386677e-01	  -2.8524894367780856e-01	   4.2041189032621012e-01	  -9.0733336898426853e-01	   8.3726608026138882e-01	   5.4679567558982178e-01	   6.9825119346989251e-01	  -7.1585282762441516e-01	  -4.6504501129572468e-01	   8.8528703676771370e-01	   3.4247891000000003e-01	   7.6156133999999998e-01	   3.4203765000000003e-01	   2.0574508000000000e-01	   7.4966129000000004e-01	   5.3158874000000000e-01	
   7.7072288972211522e-01	   6.3717048523797171e-01	   1.8802754548321543e-01	   9.8216375525650368e-01	  -4.8088862331775473e-01	   8.7678169002526196e-01	  -6.9362864729743401e-01	  -7.2033277007806040e-01	  -3.7758599296663649e-02	   9.9928688982651726e-01	   7.4600953960541538e-01	  -6.6593525722679392e-01	  -9.9714857635830800e-01	  -7.5463346510737467e-02	  -7.5620694795670171e-02	  -9.9713665588956268e-01	  -9.9357025608257021e-01	   1.1321725234263472e-01	   8.8175181000000002e-01	   1.3117706000000001e-01	   9.3655222000000005e-01	   7.9274891999999997e-01	   8.5791611999999995e-01	   5.8495111000000000e-01	
  -2.4963574573548006e-01	  -9.6833981352162257e-01	  -8.7536398890218148e-01	   4.8346446294765189e-01	   6.8668003005464184e-01	   7.2695979003254108e-01	   2.2409089961974532e-01	   9.7456824733192149e-01	  -8.9956653741522641e-01	   4.3678375057089752e-01	  -6.2726024889413978e-01	  -7.7880972012248395e-01	   6.1843991047444002e-01	  -7.8583209220059647e-01	   8.8777213604637784e-01	  -4.6028321114250043e-01	  -9.9965433372459711e-01	   2.6290931243147141e-02	   4.9216027000000001e-01	   7.4792800999999998e-01	   3.4813263000000000e-01	   5.3811417000000000e-02	   8.9557816000000001e-01	   3.9089641000000003e-01	
   7.4477218274367885e-01	   6.6731881122235448e-01	   1.0937120837756729e-01	   9.9400097523997966e-01	  -5.8185891555832969e-01	   8.1328974073529570e-01	   0.0000000000000000e+00	   0.0000000000000000e+00	   0.0000000000000000e+00	   0.0000000000000000e+00	   0.0000000000000000e+00	   0.0000000000000000e+00	   0.0000000000000000e+00	   0.0000000000000000e+00	   0.0000000000000000e+00	   0.0000000000000000e+00	   0.0000000000000000e+00	   0.0000000000000000e+00	   5.0362985999999998e-01	   1.3484335000000000e-01	   4.2124001999999999e-01	   2.0763475999999999e-02	   7.6445532999999999e-01	   8.8388739999999993e-02	
  -9.5876981735444644e-01	   2.8418380905695784e-01	   8.3847912533975710e-01	  -5.4493371740926067e-01	  -6.4904713836058336e-01	   7.6074819236455493e-01	   4.9755971482406208e-01	  -8.6742972636646365e-01	  -5.0486866036839606e-01	  -8.6319617456162379e-01	  -9.9996432817707281e-01	   8.4464414622580156e-03	  -4.9021527155564237e-01	   8.7160139257210223e-01	  -2.3053575317674016e-01	   9.7306385530818740e-01	  -7.2355472063285275e-01	  -6.9026702532419615e-01	   4.2384922000000003e-01	   6.7293228000000005e-01	   9.5639295000000002e-01	   6.3163396000000005e-01	   9.8132275000000002e-01	   7.9359192999999995e-01	
   9.3556211411319679e-01	   3.5316218743807459e-01	   7.5055293872790851e-01	   6.6081032540881224e-01	   4.6881567410711278e-01	   8.8329602269652130e-01	  -6.0784343488919446e-01	  -7.9405689888200426e-01	  -2.6105271732421115e-01	   9.6532454582779847e-01	   9.2520179566020733e-01	  -3.7947547655563707e-01	  -8.6370295755529103e-01	  -5.0400119157621370e-01	  -2.8824441763529984e-01	  -9.5755686812955754e-01	  -8.4910616035422470e-01	   5.2822223395887613e-01	   6.5340657000000002e-01	   3.7631806000000001e-01	   6.8737937999999998e-01	   3.8239364999999997e-01	   7.2312133000000001e-01	   3.8303543000000001e-01	
  -8.8192126434840123e-01	   4.7139673682591127e-01	   5.5557023301976505e-01	  -8.3146961230243643e-01	  -9.8017140329853411e-02	   9.9518472667216806e-01	   7.7496748303487828e-01	  -6.3200110778272034e-01	   2.0114919952282850e-01	  -9.7956061554725915e-01	  -4.6319930529750514e-01	  -8.8625414163879013e-01	  -9.1907799906265064e-01	  -3.9407566740284067e-01	  -3.8553704258788291e-01	   9.2269235869415811e-01	  -9.8138356234615343e-01	  -1.9205807339649558e-01	   7.6532071000000002e-01	   2.0263018999999999e-01	   8.2794668999999999e-01	   8.6061208000000000e-01	   5.9058873999999995e-01	   4.6253007000000002e-01	
   7.7023178224978017e-01	  -6.3776406422150123e-01	   1.8651399677534564e-01	  -9.8245230368038039e-01	  -4.8291376594817254e-01	  -8.7566791345678163e-01	   0.0000000000000000e+00	   0.0000000000000000e+00	   0.0000000000000000e+00	   0.0000000000000000e+00	   0.0000000000000000e+00	   0.0000000000000000e+00	   0.0000000000000000e+00	   0.0000000000000000e+00	   0.0000000000000000e+00	   0.0000000000000000e+00	   0.0000000000000000e+00	   0.0000000000000000e+00	   4.6483016999999999e-01	   9.0848616000000004e-01	   7.2225013000000005e-01	   7.7364414999999997e-01	   1.9337654000000001e-01	   8.6285699999999999e-01	
   9.5694033573220438e-01	   2.9028467725447726e-01	   8.3146961230252792e-01	   5.5557023301962816e-01	   6.3439328416360941e-01	   7.7301045336276664e-01	   0.0000000000000000e+00	   0.0000000000000000e+00	   0.0000000000000000e+00	   0.0000000000000000e+00	   0.0000000000000000e+00	   0.0000000000000000e+00	   0.0000000000000000e+00	   0.0000000000000000e+00	   0.0000000000000000e+00	   0.0000000000000000e+00	   0.0000000000000000e+00	   0.0000000000000000e+00	   2.5775717999999997e-01	   4.8198737999999998e-02	   8.6986105000000002e-01	   3.1802977999999998e-01	   7.6977649000000004e-01	   5.1731691000000002e-01	
  -2.3240853786995574e-01	   9.7261825580499428e-01	  -8.9197254305029872e-01	  -4.5208957347453066e-01	   6.4701260697088814e-01	  -7.6247930229005900e-01	   0.0000000000000000e+00	   0.0000000000000000e+00	   0.0000000000000000e+00	   0.0000000000000000e+00	   0.0000000000000000e+00	   0.0000000000000000e+00	   0.0000000000000000e+00	   0.0000000000000000e+00	   0.0000000000000000e+00	   0.0000000000000000e+00	   0.0000000000000000e+00	   0.0000000000000000e+00	   6.5742573000000004e-01	   1.6601648999999999e-01	   3.2525816000000002e-01	   1.5043329000000000e-01	   6.0782685999999997e-01	   7.0581147000000000e-01	
  -7.4697891639101266e-01	  -6.6484772577433737e-01	   1.1595500306538284e-01	   9.9325446752788737e-01	   5.7374703131122096e-01	  -8.1903256593468909e-01	   9.5668952376708405e-01	  -2.9111021128485004e-01	   8.3050968977137996e-01	  -5.5700417879567676e-01	   6.3239031541557489e-01	  -7.7464991381177450e-01	   3.7949268960830745e-01	  -9.2519473546591957e-01	  -9.0817086570858940e-01	  -4.1859966397276449e-01	  -5.2108294186375093e-01	  -8.5350604432459576e-01	   2.8549148000000002e-01	   5.6008343999999999e-01	   4.9788697999999998e-01	   6.8703427999999997e-02	   8.1459714000000005e-01	   7.5928547999999996e-01	
   9.7711449403762518e-01	   2.1271404641347896e-01	   9.0950546891680861e-01	   4.1569195567200490e-01	   8.0026745813257583e-01	   5.9964322347044496e-01	  -8.5027416709594850e-01	   5.2634004290885106e-01	   4.4593231846141773e-01	  -8.9506668318713811e-01	   9.1944705774054017e-02	   9.9576411417570310e-01	  -6.0228873470324940e-01	  -7.9827832242242358e-01	  -9.4277513289180681e-01	   3.3342922607479403e-01	  -7.1885529225863487e-01	  -6.9515974336245379e-01	   6.6598166999999997e-01	   9.8710611000000004e-01	   3.2731202999999998e-01	   5.3379304000000005e-01	   5.5814511000000000e-01	   8.6636835000000001e-01	
   1.0452846326760752e-01	   9.9452189536827817e-01	  -9.7814760073382490e-01	   2.0791169081766894e-01	  -3.0901699437481583e-01	  -9.5105651629519639e-01	  -9.5802250946028278e-01	  -2.8669299148640243e-01	   8.3561425726515515e-01	   5.4931667829695752e-01	  -6.4305202591162614e-01	  -7.6582249377447342e-01	   3.9650237388959386e-01	   9.1803369627694864e-01	   1.8498183659219802e-01	  -9.8274193974358159e-01	  -3.8526307797151893e-01	  -9.2280678408424766e-01	   4.4852882999999999e-01	   4.3109257000000001e-01	   1.4753753000000000e-01	   9.6966814999999995e-01	   6.0411252000000004e-01	   4.2821374000000001e-01	
  -9.8972843460898519e-01	   1.4296022428090857e-01	   9.5912474854710461e-01	  -2.8298359797778616e-01	  -9.0881763733953946e-01	   4.1719360261223720e-01	   8.6967947861085615e-01	  -4.9361686000697885e-01	   5.1268479103370124e-01	  -8.5857690688879473e-01	   2.2063404904953985e-02	  -9.9975657345375835e-01	  -4.7430861008546010e-01	  -8.8035864418928667e-01	  -7.9017893196164590e-01	   6.1287621546602100e-01	  -9.3131408599251664e-01	  -3.6421706883659816e-01	   9.5225108999999997e-01	   6.7249444999999997e-01	   4.4639752999999999e-01	   5.1951592999999996e-01	   2.4881742000000001e-01	   7.2345596999999995e-01	
   7.0067377086501570e-02	  -9.9754226109384359e-01	  -9.9018112533643599e-01	  -1.3979033953556749e-01	  -2.0882616567227064e-01	   9.7795277622726617e-01	  -9.3257221496650233e-01	   3.6098346758885197e-01	   7.3938187225505647e-01	  -6.7328630387124866e-01	  -4.4648176566345310e-01	   8.9479273182678754e-01	   9.3371106038785387e-02	  -9.9563137584002137e-01	   2.9475337542962810e-01	   9.5557336069651955e-01	  -4.2543915352253153e-01	   9.0498703120543766e-01	   5.4047257999999998e-01	   5.3010053000000001e-01	   3.4444893999999998e-01	   2.4427183000000000e-01	   7.3103178000000002e-01	   6.4497380999999998e-01	
   9.3891999625853384e-01	  -3.4413549748009847e-01	   7.6314151874825020e-01	  -6.4623140001288548e-01	   4.9413766759714328e-01	  -8.6938366988439297e-01	  -5.3397505032572989e-01	  -8.4550023396190388e-01	  -4.2974129125926841e-01	   9.0295205996044814e-01	   9.9291730558015401e-01	  -1.1880750935629873e-01	  -6.3064484517363328e-01	  -7.7607156838523861e-01	  -7.9232649588800419e-01	  -6.1009730692229458e-01	  -2.1039320861996527e-01	   9.7761684609390598e-01	   4.5088529999999999e-01	   4.7514324000000002e-01	   2.2741743000000000e-01	   7.5064916999999998e-01	   2.0294609999999999e-01	   6.9459064999999998e-01	
   1.3909436048238483e-01	   9.9027913180173421e-01	  -9.6130551776399276e-01	   2.7548448507402695e-01	  -4.0651871292552544e-01	  -9.1364245525335253e-01	   8.9925193869010683e-02	   9.9594852251892052e-01	  -9.8382691901524166e-01	   1.7912172794213738e-01	  -2.6686684672100464e-01	  -9.6373341029622284e-01	   9.3583081315804584e-01	  -3.5244955545999868e-01	  -9.7375895086679209e-01	   2.2758186572485184e-01	   9.9877512553172110e-01	  -4.9479779901438772e-02	   2.9629664000000000e-01	   4.2250535000000000e-01	   3.9850762000000001e-01	   2.4092366000000001e-01	   2.9718696999999999e-01	   2.8416712999999999e-01	
  -9.9959950711832346e-01	   2.8298858083053022e-02	   9.9839834926239046e-01	  -5.6575049183662372e-02	  -9.9639748854254306e-01	   8.4805924475315056e-02	   0.0000000000000000e+00	   0.0000000000000000e+00	   0.0000000000000000e+00	   0.0000000000000000e+00	   0.0000000000000000e+00	   0.0000000000000000e+00	   0.0000000000000000e+00	   0.0000000000000000e+00	   0.0000000000000000e+00	   0.0000000000000000e+00	   0.0000000000000000e+00	   0.0000000000000000e+00	   2.7805085000000002e-01	   4.2172090000000001e-01	   6.8629983999999999e-01	   4.4883603000000000e-01	   2.3529486999999999e-01	   8.8695158999999996e-02	
   1.0106864282594217e-13	  -1.0000000000000000e+00	  -1.0000000000000000e+00	  -2.0213728565188435e-13	  -3.0320592847782651e-13	   1.0000000000000000e+00	   3.2641044366169220e-01	  -9.4522813239375036e-01	  -7.8691244453715448e-01	  -6.1706466811231353e-01	  -8.4012332395025091e-01	   5.4239542822076015e-01	   2.3846239073488060e-01	   9.7115173284353729e-01	  -9.4522813239371739e-01	  -3.2641044366178773e-01	   9.4522813239378334e-01	  -3.2641044366159666e-01	   5.7515903999999995e-01	   3.1302165999999998e-01	   6.4907917999999998e-01	   6.9179559000000002e-01	   7.7876458999999998e-01	   5.8760261000000003e-01	
   8.4928485523115715e-01	   5.2793487730494981e-01	   4.4256953065001525e-01	   8.9673419168682600e-01	  -9.7549655695518531e-02	   9.9523065903019980e-01	   9.9924049742229792e-01	   3.8967015682993086e-02	   9.9696314337752279e-01	   7.7874840268272988e-02	   9.9317139717820913e-01	   1.1666437256970912e-01	   9.8787101850638193e-01	   1.5527669108775985e-01	   8.2806777455086478e-01	   5.6062800567789883e-01	   8.6921186783794679e-01	   4.9443981313165680e-01	   1.6723926000000000e-01	   1.4156931000000000e-01	   3.5846525000000001e-01	   4.2579317999999999e-01	   4.7461094999999998e-01	   5.8141507000000003e-01	
  -8.4672419922834841e-01	   5.3203207651523432e-01	   4.3388373911777561e-01	  -9.0096886790231434e-01	   1.1196447610294806e-01	   9.9371220989328313e-01	  -9.9447056498734898e-01	   1.0501569108348956e-01	   9.7794340925251422e-01	  -2.0887002728866952e-01	  -9.5060130446265478e-01	   3.1041449700988366e-01	   9.1274662340086088e-01	  -4.0852613315469433e-01	   7.8617057660124490e-01	  -6.1800956666257689e-01	   8.9791400898890761e-01	  -4.4017091278441833e-01	   4.5536827000000002e-02	   6.2796236999999999e-01	   3.2992738999999999e-01	   1.5884036000000001e-02	   7.7046395000000001e-01	   5.4589935000000001e-01	
  -6.8101585878681470e-01	  -7.3226866659775713e-01	  -7.2434800161714427e-02	   9.9737314969149460e-01	   7.7967435406317753e-01	  -6.2618519753836954e-01	  -9.8734548187566096e-01	  -1.5858404528740874e-01	   9.4970220116056214e-01	   3.1315448122417644e-01	  -8.8802287301084115e-01	  -4.5979927904420587e-01	   8.0386854177843381e-01	   5.9480700024378863e-01	   5.5627180387254549e-01	   8.3100040927570207e-01	   7.8852405864512376e-01	   6.1500390969311847e-01	   2.7771989000000002e-01	   4.1034825999999996e-03	   3.0453596999999999e-01	   4.8077790999999998e-01	   5.7166245999999998e-01	   4.8382278000000001e-01	
   7.4185774444785790e-01	  -6.7055729583886925e-01	   1.0070582599452652e-01	  -9.9491624602815698e-01	  -5.9243895059774287e-01	  -8.0561534854708750e-01	   7.8082459259390880e-01	  -6.2475031460620833e-01	   2.1937408879888751e-01	  -9.7564081975061800e-01	  -4.3823922556980621e-01	  -8.9885837659331880e-01	  -9.0375001832731561e-01	  -4.2806063165558295e-01	   1.6032988953431387e-01	  -9.8706348657110943e-01	   9.9819165260795661e-01	  -6.0111768097406953e-02	   7.2708189999999995e-01	   9.4806961999999995e-01	   1.1097197000000000e-01	   6.8411553999999997e-01	   8.3209474999999999e-01	   6.9685158000000003e-01	
   2.3958535475820705e-01	   9.7087530496216867e-01	  -8.8519771557076821e-01	   4.6521500873068727e-01	  -6.6374617219056098e-01	  -7.4795789915100053e-01	  -9.9624891456155740e-01	   8.6533809779292370e-02	   9.8502379953016250e-01	  -1.7241842813099262e-01	  -9.6640886763689360e-01	   2.5700953397253018e-01	   9.4054377128167543e-01	  -3.3967251037321716e-01	  -3.2270018858171823e-01	  -9.4650123522863061e-01	  -1.5467311066370065e-01	  -9.8796570225773250e-01	   5.2392307000000005e-01	   2.5192592000000003e-01	   9.3308488999999994e-01	   6.1328218999999995e-01	   3.5223564000000002e-01	   1.0019089000000000e-01	
  -9.9977164078030789e-01	  -2.1369751787302972e-02	   9.9908666741709817e-01	   4.2729743614919623e-02	  -9.9794539275033600e-01	  -6.4070219980717616e-02	  -9.9616961367693235e-01	  -8.7441985263094546e-02	   9.8470779842649747e-01	   1.7421409735736182e-01	  -9.6570236060944081e-01	  -2.5965159486002309e-01	   9.3929889656391929e-01	   3.4309996052725450e-01	   9.9407351564041080e-01	   1.0870991446190108e-01	   9.9781074268213354e-01	  -6.6134119697242005e-02	   4.5824603000000003e-01	   5.9484857000000002e-01	   6.3025781000000003e-01	   2.2623393999999999e-01	   9.2787606000000000e-01	   9.4681091999999994e-02	
   2.5358329899762533e-01	  -9.6731355333701441e-01	  -8.7139102093896192e-01	  -4.9058912404063104e-01	  -6.9552371861084628e-01	   7.1850313628385809e-01	   7.8082459259390880e-01	   6.2475031460620845e-01	   2.1937408879888712e-01	   9.7564081975061800e-01	  -4.3823922556980677e-01	   8.9885837659331858e-01	  -9.0375001832731594e-01	   4.2806063165558222e-01	   8.0233352289858950e-01	  -5.9687596536729348e-01	  -4.0632537064170937e-01	  -9.1372845702258698e-01	   3.5531198000000003e-01	   8.4443659000000004e-01	   2.2517002000000000e-01	   1.8543270000000001e-01	   1.6217007999999999e-01	   3.9992443000000000e-01	
   8.9386668977093353e-01	   4.4833284612880375e-01	   5.9799531816409268e-01	   8.0149959416947025e-01	   1.7518950132077396e-01	   9.8453473205721820e-01	   0.0000000000000000e+00	   0.0000000000000000e+00	   0.0000000000000000e+00	   0.0000000000000000e+00	   0.0000000000000000e+00	   0.0000000000000000e+00	   0.0000000000000000e+00	   0.0000000000000000e+00	   0.0000000000000000e+00	   0.0000000000000000e+00	   0.0000000000000000e+00	   0.0000000000000000e+00	   4.5301857000000001e-01	   2.4329603999999999e-01	   9.0791964999999997e-01	   7.4211888999999998e-01	   3.0310080000000000e-01	   3.8760654999999999e-01	
  -4.9583415694149474e-01	   8.6841723198593723e-01	  -5.0829697762023440e-01	  -8.6118185219042731e-01	   9.9989616368997214e-01	  -1.4410476677626377e-02	   9.0399675036894200e-01	  -4.2753932605363071e-01	   6.3442024935521457e-01	  -7.7298832281481944e-01	   2.4303093720179358e-01	  -9.7001853774184021e-01	  -1.9502189441613488e-01	  -9.8079888901769352e-01	  -7.6949948500408150e-02	   9.9703495697281574e-01	  -8.1951498469366235e-01	   5.7305775438654216e-01	   6.0566953000000000e-02	   5.2553223999999998e-01	   5.2270731000000004e-01	   9.3846021999999996e-01	   8.1980717000000003e-01	   9.5769493000000006e-01	
  -7.1089175164270624e-01	  -7.0330144137941653e-01	   1.0734165107270323e-02	   9.9994238719010697e-01	   6.9563009277164678e-01	  -7.1840014896331283e-01	   0.0000000000000000e+00	   0.0000000000000000e+00	   0.0000000000000000e+00	   0.0000000000000000e+00	   0.0000000000000000e+00	   0.0000000000000000e+00	   0.0000000000000000e+00	   0.0000000000000000e+00	   0.0000000000000000e+00	   0.0000000000000000e+00	   0.0000000000000000e+00	   0.0000000000000000e+00	   3.7791373000000000e-01	   9.8740463000000001e-01	   1.6123281000000000e-01	   8.7585117000000001e-01	   1.5159426000000001e-01	   1.9861865000000001e-01	
   7.5253064949527415e-01	  -6.5855722725532440e-01	   1.3260475685955814e-01	  -9.9116899591251217e-01	  -5.5295236188390173e-01	  -8.3321286925191851e-01	   9.6229472873295785e-01	  -2.7200892458293169e-01	   8.5202228989447393e-01	  -5.2350550858895173e-01	   6.7749838792391559e-01	  -7.3552425817269662e-01	   4.5188396495404604e-01	  -8.9207672440065966e-01	   5.4502283405725249e-01	  -8.3842120104169637e-01	   9.0328972038132949e-01	  -4.2903109567188663e-01	   9.5278744000000004e-01	   7.8910534000000004e-02	   2.2656873999999999e-01	   9.2374175999999997e-01	   6.1863931000000005e-01	   2.6699905999999999e-02	
   2.4996640937670336e-01	   9.6825450899198928e-01	  -8.7503358836663669e-01	   4.8406220595106103e-01	  -6.8742441771274443e-01	  -7.2625592591888311e-01	  -8.8605585358109518e-01	   4.6357849856812477e-01	   5.7018995133064632e-01	  -8.2151288450124460e-01	  -1.2438443447818268e-01	   9.9223410164111103e-01	  -3.4976683880311038e-01	  -9.3683678326252695e-01	  -6.7034617173719946e-01	  -7.4204852269732413e-01	   2.2737777128344691e-01	  -9.7380662819995867e-01	   7.2159008000000002e-01	   7.9331682000000003e-01	   9.2771767000000005e-01	   3.6357177000000002e-01	   4.1049654000000002e-01	   1.7630483999999998e-02	
  -9.8953855680958713e-01	  -1.4426865420873489e-01	   9.5837311082560095e-01	   2.8551879175714578e-01	  -9.0715573313337261e-01	  -4.2079505206603041e-01	  -9.1675275434582015e-01	  -3.9945511312205317e-01	   6.8087122520129539e-01	   7.3240315038432680e-01	  -3.3162838777038101e-01	  -9.4341009769072215e-01	  -7.2828749385773703e-02	   9.9734446068693050e-01	   8.4953334589966001e-01	   5.2753492226062959e-01	   9.6479104907349345e-01	  -2.6301755003738447e-01	   6.5047193000000003e-01	   1.1041093000000000e-01	   6.7543158999999997e-01	   8.0778282999999995e-01	   4.0997950000000000e-01	   4.1673199000000000e-01	
   7.3305187182969545e-01	  -6.8017273777106035e-01	   7.4730093586040616e-02	  -9.9720379718120888e-01	  -6.2348980185918401e-01	  -7.8183148246767054e-01	   9.2622914620963992e-01	   3.7696096444030042e-01	   7.1580086257647713e-01	   6.9830446449580386e-01	   3.9976209739102841e-01	   9.1661893144835593e-01	   2.4741749730457303e-02	   9.9969387605420257e-01	   9.3537258058837569e-01	  -3.5366387359107304e-01	   4.2257543815601878e-01	  -9.0632775477045213e-01	   5.5031434000000001e-01	   4.0779531000000002e-01	   7.5326172999999996e-01	   4.5661225999999999e-01	   1.9781436999999999e-02	   1.0532937000000001e-01	
   6.2790519529615355e-02	   9.9802672842825257e-01	  -9.9211470131440194e-01	   1.2533323356490461e-01	  -1.8738131458661628e-01	  -9.8228725072851863e-01	   0.0000000000000000e+00	   0.0000000000000000e+00	   0.0000000000000000e+00	   0.0000000000000000e+00	   0.0000000000000000e+00	   0.0000000000000000e+00	   0.0000000000000000e+00	   0.0000000000000000e+00	   0.0000000000000000e+00	   0.0000000000000000e+00	   0.0000000000000000e+00	   0.0000000000000000e+00	   2.8147613999999999e-01	   9.5004920999999998e-01	   5.8757740999999997e-01	   6.5825655000000005e-01	   8.8170724000000000e-01	   6.9284692000000003e-01	
  -8.8279294452434565e-01	  -4.6976229850642071e-01	   5.5864676580392891e-01	   8.2940568545001558e-01	  -1.0354590214176024e-01	  -9.9462467602088422e-01	   7.7792202189385140e-01	  -6.2836082616008315e-01	   2.1032534429483563e-01	  -9.7763144873068542e-01	  -4.5068858771513270e-01	  -8.9268124036709717e-01	  -9.1152649909451766e-01	  -4.1124134209548074e-01	  -9.8192429830635986e-01	   1.8927406688599160e-01	  -3.9156384632965147e-01	  -9.2015094101322803e-01	   4.4798781999999998e-01	   7.3508001000000001e-01	   7.7676754000000003e-01	   1.3054763999999999e-01	   5.0153698999999996e-01	   7.0228195999999998e-01	
   8.3622537429930721e-01	  -5.4838592558341925e-01	   3.9854575324403307e-01	  -9.1714845176293369e-01	  -1.6967723093552459e-01	  -9.8549968914355968e-01	  -7.7851788589272797e-01	   6.2762241940924757e-01	   2.1218019730976512e-01	  -9.7723055819473281e-01	   4.4814572861692792e-01	   8.9396051698182000e-01	  -9.0995912773917831e-01	  -4.1469794530978066e-01	  -3.0683710914470619e-01	   9.5176204402766540e-01	  -9.9519571191399703e-01	  -9.7905541150604444e-02	   5.3543015999999999e-01	   8.6006901000000002e-01	   4.3383716000000000e-01	   1.6025184000000001e-01	   7.8265741000000007e-03	   5.7761695000000002e-01	
   1.7525431396422644e-01	   9.8452319700295954e-01	  -9.3857185087385664e-01	   3.4508387494524129e-01	  -5.0423184562629086e-01	  -8.6356832147566898e-01	  -7.4118300410025650e-01	  -6.7130302727823232e-01	   9.8704491134161770e-02	   9.9511678883935339e-01	   5.9486682158624693e-01	  -8.0382427468687223e-01	  -9.8051484685989232e-01	   1.9644499252289896e-01	   5.3101788366819502e-01	  -8.4736061226879744e-01	  -7.9080892147926518e-01	  -6.1206310925328722e-01	   8.5916775999999995e-01	   4.7945725000000000e-01	   8.4298660999999997e-01	   4.1961865999999998e-01	   2.1684339999999999e-01	   4.3830756999999998e-01	
  -8.9448708222892437e-01	  -4.4709379298485624e-01	   6.0021428054882908e-01	   7.9983924473937362e-01	  -1.7928075881158545e-01	  -9.8379795157336147e-01	   1.6132045578871201e-01	   9.8690207748495606e-01	  -9.4795142108824437e-01	   3.1841498591739981e-01	  -4.6716836641973758e-01	  -8.8416837616865362e-01	   7.9722379348644412e-01	  -6.0368387679238500e-01	   2.9693872932509846e-01	  -9.5489653419980314e-01	  -5.8553685692966850e-01	   8.1064578527056130e-01	   7.8318619000000000e-01	   2.3732174000000000e-01	   8.1035619000000003e-01	   7.6660767000000005e-02	   2.0851449999999999e-01	   2.2766833000000000e-01	
   8.6356832147580909e-01	  -5.0423184562605083e-01	   4.9150049171309285e-01	  -8.7087729712387607e-01	  -1.4679812209387369e-02	  -9.9989224575125946e-01	   0.0000000000000000e+00	   0.0000000000000000e+00	   0.0000000000000000e+00	   0.0000000000000000e+00	   0.0000000000000000e+00	   0.0000000000000000e+00	   0.0000000000000000e+00	   0.0000000000000000e+00	   0.0000000000000000e+00	   0.0000000000000000e+00	   0.0000000000000000e+00	   0.0000000000000000e+00	   3.9361183000000001e-02	   2.0901030000000001e-01	   9.4451856000000001e-01	   3.4979283999999999e-01	   5.4746534000000002e-01	   6.8143271000000005e-02	
  -1.9926490372184272e-01	   9.7994566081223333e-01	  -9.2058699628944951e-01	  -3.9053755550877445e-01	   5.6614626208823804e-01	  -8.2430480401579376e-01	   9.0632176466271352e-01	  -4.2258828533060977e-01	   6.4283828220267025e-01	  -7.6600192097325714e-01	   2.5891488797462786e-01	  -9.6590014017241232e-01	  -1.7351788586944009e-01	  -9.8483071808478839e-01	   2.3351543734328703e-01	   9.7235309457129482e-01	  -5.9471167569633909e-01	   8.0393906659052983e-01	   3.5430421000000001e-01	   9.3995284000000001e-01	   9.2699158999999998e-01	   8.6225847000000000e-01	   8.5371808000000005e-01	   4.8550826000000002e-01	
  -3.2355492921328832e-01	  -9.4620938897359497e-01	  -7.9062441556356799e-01	   6.1230142374060070e-01	   8.3517578283722416e-01	   5.4998310134242279e-01	   0.0000000000000000e+00	   0.0000000000000000e+00	   0.0000000000000000e+00	   0.0000000000000000e+00	   0.0000000000000000e+00	   0.0000000000000000e+00	   0.0000000000000000e+00	   0.0000000000000000e+00	   0.0000000000000000e+00	   0.0000000000000000e+00	   0.0000000000000000e+00	   0.0000000000000000e+00	   7.3417745000000001e-01	   2.8394675000000003e-01	   8.7793616000000005e-02	   1.1448163000000000e-01	   7.6482381000000002e-02	   8.4364335000000001e-01	
   5.1388681172850681e-01	   8.5785799799938345e-01	  -4.7184068946302044e-01	   8.8168382301540582e-01	  -9.9883222683237083e-01	   4.8313379524592678e-02	  -2.2198711758851492e-01	   9.7504959854601392e-01	  -9.0144343924948567e-01	  -4.3289689977413653e-01	   6.2220477908465666e-01	  -7.8285452855828430e-01	   6.2520054833188243e-01	   7.8046414034567502e-01	  -9.5053034866114916e-01	   3.1063170519783423e-01	   7.2237784445642295e-01	  -6.9149855375010871e-01	   9.7321882000000004e-01	   3.5116351000000001e-01	   2.9387092999999997e-01	   3.8538603999999999e-01	   7.7853097999999998e-01	   7.4616408999999995e-01	
  -3.6360400091062334e-01	  -9.3155361119035307e-01	  -7.3558426104357488e-01	   6.7743324018310314e-01	   8.9852676155528011e-01	   4.3891873822950517e-01	   4.7024162740141973e-01	  -8.8253771129559344e-01	  -5.5774562371772873e-01	  -8.3001193920552840e-01	  -9.9479204694750900e-01	   1.0192538118636163e-01	  -3.7783963844744362e-01	   9.2587105345069787e-01	  -9.9311292908695825e-01	  -1.1716104335623774e-01	   6.5114945485120057e-01	  -7.5894952891940337e-01	   3.2153817000000001e-01	   5.0524932000000000e-01	   3.5550822999999998e-01	   7.0502801000000004e-01	   1.7854597999999999e-01	   6.9090256000000005e-01	
   5.9266219136386722e-01	   8.0545113255105594e-01	  -2.9750305385555753e-01	   9.5472086650843513e-01	  -9.4529981503482197e-01	   3.2620278922034285e-01	   0.0000000000000000e+00	   0.0000000000000000e+00	   0.0000000000000000e+00	   0.0000000000000000e+00	   0.0000000000000000e+00	   0.0000000000000000e+00	   0.0000000000000000e+00	   0.0000000000000000e+00	   0.0000000000000000e+00	   0.0000000000000000e+00	   0.0000000000000000e+00	   0.0000000000000000e+00	   7.1935230999999999e-01	   6.2589740999999999e-01	   8.9610791999999995e-01	   7.1243872000000000e-02	   6.6551517999999998e-01	   6.7633051000000000e-01	
  -9.9467498532921528e-01	  -1.0306150377481137e-01	   9.7875665287934910e-01	   2.0502539951043472e-01	  -9.5241453335806137e-01	  -3.0480576872550535e-01	   8.0138273581663366e-01	  -5.9815191275715862e-01	   2.8442857852990505e-01	  -9.5869723255856831e-01	  -3.4551043100317147e-01	  -9.3841490933808314e-01	  -8.3820076743091532e-01	  -5.4536178219437481e-01	  -8.5876179660602925e-01	   5.1237503519393368e-01	  -7.3546892537696396e-01	  -6.7755845489880340e-01	   1.3184731999999999e-01	   6.7872215999999996e-01	   9.1050288999999995e-01	   3.7682758000000000e-01	   3.4174049000000001e-01	   7.9762630999999995e-01	
   4.8540334115783307e-01	  -8.7429033872782347e-01	  -5.2876719278562456e-01	  -8.4876690312099834e-01	  -9.9873406530341358e-01	   5.0301757449585545e-02	   0.0000000000000000e+00	   0.0000000000000000e+00	   0.0000000000000000e+00	   0.0000000000000000e+00	   0.0000000000000000e+00	   0.0000000000000000e+00	   0.0000000000000000e+00	   0.0000000000000000e+00	   0.0000000000000000e+00	   0.0000000000000000e+00	   0.0000000000000000e+00	   0.0000000000000000e+00	   2.8960280000000001e-03	   1.0466211000000000e-01	   9.2677703000000000e-01	   4.6517374000000000e-01	   5.1175243000000004e-01	   1.8558978000000001e-01	
   7.9699436874142549e-01	   6.0398673511465195e-01	   2.7040004761108649e-01	   9.6274805336179314e-01	  -3.6597973823452690e-01	   9.3062281897758514e-01	   5.9467239017955753e-01	  -8.0396812645659788e-01	  -2.9272949671626408e-01	  -9.5619529477625165e-01	  -9.4282868915619755e-01	  -3.3327775638948087e-01	  -8.2861888350448543e-01	   5.5981313480462380e-01	   9.5953663005387546e-01	  -2.8158383402612486e-01	  -1.1635537615653458e-02	   9.9993230484088003e-01	   7.0082990000000001e-01	   5.4971871999999999e-01	   1.0887246000000000e-01	   3.5439505999999998e-01	   4.1636793000000000e-01	   3.9992464999999999e-01	
  -7.7925769211859874e-01	   6.2670363751457125e-01	   2.1448510145200980e-01	  -9.7672726042387137e-01	   4.4497936181596542e-01	   8.9554082405988400e-01	   0.0000000000000000e+00	   0.0000000000000000e+00	   0.0000000000000000e+00	   0.0000000000000000e+00	   0.0000000000000000e+00	   0.0000000000000000e+00	   0.0000000000000000e+00	   0.0000000000000000e+00	   0.0000000000000000e+00	   0.0000000000000000e+00	   0.0000000000000000e+00	   0.0000000000000000e+00	   6.1895913999999996e-01	   8.8330118000000002e-01	   4.1888590999999997e-01	   2.3546617999999998e-02	   9.8396390000000000e-01	   9.1588742000000001e-01	
  -2.5525562058701323e-01	  -9.6687360505845787e-01	  -8.6968913631747757e-01	   4.9359984417679875e-01	   6.9924170100401639e-01	   7.1488533596445369e-01	   8.6967947861085615e-01	  -4.9361686000697885e-01	   5.1268479103370124e-01	  -8.5857690688879473e-01	   2.2063404904953985e-02	  -9.9975657345375835e-01	  -4.7430861008546010e-01	  -8.8035864418928667e-01	  -6.9925568797718729e-01	  -7.1487165479654491e-01	   2.5527453792797961e-01	  -9.6686861066313268e-01	   7.5685062000000003e-01	   1.1499806999999999e-01	   5.7055418000000002e-01	   1.5310204999999999e-01	   5.8633944000000005e-01	   5.7236206000000001e-01	
   9.2246883288552517e-01	   3.8607156377389024e-01	   7.0189749529036605e-01	   7.1227796968958024e-01	   3.7248829368602959e-01	   9.2803689100534692e-01	  -3.5349398774470203e-01	   9.3543679670427138e-01	  -7.5008400125669683e-01	  -6.6134256710024608e-01	   8.8379435724016575e-01	  -4.6787555408510306e-01	   1.2525201788251294e-01	   9.9212495786385635e-01	  -6.8723273322216216e-01	   7.2643731346069806e-01	   3.5058360608351338e-02	  -9.9938526672722905e-01	   1.7023534000000001e-01	   5.0183741999999998e-01	   3.1430173000000000e-01	   8.7830733999999999e-01	   1.4148056000000001e-01	   1.5134865000000000e-01	
  -8.1586415296160797e-01	   5.7824361986297612e-01	   3.3126863217552399e-01	  -9.4353648224992204e-01	   2.7532374897633927e-01	   9.6135156589543957e-01	  -9.6961934392835403e-01	  -2.4461873983803492e-01	   8.8032334424010361e-01	   4.7437412406867230e-01	  -7.3753774304545416e-01	  -6.7530591407407181e-01	   5.4993838082815982e-01	   8.3520523064220675e-01	   9.3252689033956149e-01	  -3.6110053834580119e-01	   6.4962843911903168e-01	  -7.6025186029878977e-01	   1.4183760000000001e-01	   8.1044006999999996e-01	   5.7750054000000002e-02	   9.1285280000000002e-01	   7.7878480000000005e-01	   5.5684644000000005e-01	
  -1.0647947562397886e-01	  -9.9431490045701443e-01	  -9.7732424254168493e-01	   2.1174825841154327e-01	   3.1460942134486158e-01	   9.4922121341711030e-01	   6.3681884869492644e-01	  -7.7101345899203877e-01	  -1.8892350789373666e-01	  -9.8199180656720619e-01	  -8.7743895027151975e-01	  -4.7968832437991793e-01	  -9.2861581633025048e-01	   3.7104267363916860e-01	  -8.3443830780518968e-01	  -5.5110136133674315e-01	   6.9882203365218576e-01	  -7.1529557896174878e-01	   1.2086920000000000e-01	   1.0115027000000000e-01	   4.5302782000000003e-01	   6.1118960999999999e-02	   5.7212554999999998e-01	   9.7164260000000002e-01	
   9.4051325950292020e-01	   3.3975698476880911e-01	   7.6913038260161437e-01	   6.3909189836759328e-01	   5.0624138674382468e-01	   8.6239182414241922e-01	   0.0000000000000000e+00	   0.0000000000000000e+00	   0.0000000000000000e+00	   0.0000000000000000e+00	   0.0000000000000000e+00	   0.0000000000000000e+00	   0.0000000000000000e+00	   0.0000000000000000e+00	   0.0000000000000000e+00	   0.0000000000000000e+00	   0.0000000000000000e+00	   0.0000000000000000e+00	   6.5176746999999993e-02	   6.8525322000000000e-02	   6.8474696000000002e-01	   6.9848558999999999e-01	   3.8469799999999998e-01	   1.1297314999999999e-01	
  -5.5630874069352609e-01	   8.3097568257319243e-01	  -3.8104117005596616e-01	  -9.2455807103847198e-01	   9.8026180762597070e-01	   1.9770378982170367e-01	   0.0000000000000000e+00	   0.0000000000000000e+00	   0.0000000000000000e+00	   0.0000000000000000e+00	   0.0000000000000000e+00	   0.0000000000000000e+00	   0.0000000000000000e+00	   0.0000000000000000e+00	   0.0000000000000000e+00	   0.0000000000000000e+00	   0.0000000000000000e+00	   0.0000000000000000e+00	   1.9426676000000001e-01	   5.9785590000000000e-01	   9.8304524999999998e-01	   3.7515108000000003e-01	   1.4513992000000001e-01	   6.3992000999999998e-01	
  -7.5144376294964077e-01	  -6.5979714391931410e-01	   1.2933545775183178e-01	   9.9160089722031020e-01	   5.5706711683793930e-01	  -8.3046747518362551e-01	   8.5674966397225405e-01	  -5.1573250167449181e-01	   4.6803997343314052e-01	  -8.8370729501838174e-01	  -5.4763484043401443e-02	  -9.9849935443916438e-01	  -5.6187716653741027e-01	  -8.2722067776615171e-01	  -9.8407802303234360e-01	  -1.7773700960901240e-01	  -3.0352035976995823e-01	  -9.5282495307643744e-01	   8.1733758999999995e-01	   4.6379801999999998e-01	   5.9958396000000003e-01	   8.1889157999999995e-01	   7.0302608000000003e-02	   3.1884844000000001e-01	
   9.0006541186425815e-01	  -4.3575480991679638e-01	   6.2023549126875333e-01	  -7.8441566491918568e-01	   2.1643961393902547e-01	  -9.7629600711972886e-01	  -4.0604534567163880e-01	   9.1385292977502641e-01	  -6.7025435451679871e-01	  -7.4213145752708087e-01	   9.5035266780702810e-01	  -3.1117488136426502e-01	  -1.0151820050253900e-01	   9.9483368206284928e-01	   3.2748438418515463e-02	   9.9946362604206296e-01	  -7.6368318099353272e-01	  -6.4559120120057334e-01	   8.8170216000000001e-01	   5.3828452999999998e-01	   8.4357081000000000e-01	   6.5821392999999995e-01	   9.0017956999999996e-02	   4.4515241999999999e-01	
   1.6890462803821632e-01	   9.8563239933926272e-01	  -9.4294245325454362e-01	   3.3295574758562568e-01	  -4.8743931669501983e-01	  -8.7315686594099007e-01	   0.0000000000000000e+00	   0.0000000000000000e+00	   0.0000000000000000e+00	   0.0000000000000000e+00	   0.0000000000000000e+00	   0.0000000000000000e+00	   0.0000000000000000e+00	   0.0000000000000000e+00	   0.0000000000000000e+00	   0.0000000000000000e+00	   0.0000000000000000e+00	   0.0000000000000000e+00	   4.0847431000000001e-01	   5.1214877999999997e-01	   4.7099468999999998e-02	   2.4412524999999999e-01	   4.7411931999999997e-02	   5.0952478000000001e-01	
  -9.4683037700375461e-01	  -3.2173317700064435e-01	   7.9297552563414408e-01	   6.0925349054827160e-01	  -5.5479625477810035e-01	  -8.3198624729270199e-01	   8.2802475325719815e-01	  -5.6069154442826763e-01	   3.7124998401328790e-01	  -9.2853295545722736e-01	  -2.1321640043851348e-01	  -9.7700499823902820e-01	  -7.2434689874026692e-01	  -6.8943568973861324e-01	  -9.6439206120125809e-01	   2.6447675189322190e-01	  -6.0360591738864933e-01	  -7.9728282089444713e-01	   3.0265553999999999e-03	   4.1922003000000002e-01	   5.4199657000000001e-01	   2.3251949000000000e-01	   2.1360826999999999e-01	   6.0398401000000002e-01	
   9.6625556861679607e-01	  -2.5758527930965325e-01	   8.6729964776593582e-01	  -4.9778642105333043e-01	   7.0981066000964721e-01	  -7.0439252333955749e-01	   9.9942173527299982e-01	   3.4002868465850863e-02	   9.9768760987218807e-01	   6.7966411612800468e-02	   9.9479962936466793e-01	   1.0185134960283715e-01	   9.9076113378495878e-01	   1.3561849350712846e-01	   9.7445545547530299e-01	  -2.2458086582436154e-01	   9.5693817873309195e-01	  -2.9029178783250636e-01	   9.7002737999999999e-01	   8.0204074999999997e-01	   7.7983367999999997e-01	   5.1029068000000000e-01	   2.9525336000000002e-01	   9.1732548999999997e-02	
  -6.1752461494616284e-01	   7.8655155580266534e-01	  -2.3732669987118671e-01	  -9.7142989326469242e-01	   9.1063477285495886e-01	   4.1321218576827751e-01	  -9.9203615934830824e-01	   1.2595339830849320e-01	   9.6827148290908416e-01	  -2.4990065102965062e-01	  -9.2908448687492939e-01	   3.6986756582370012e-01	   8.7509932922991363e-01	  -4.8394334790485066e-01	   5.1353790591605619e-01	  -8.5806690833952559e-01	   7.1167558871241243e-01	  -7.0250826075629980e-01	   8.3198532999999997e-01	   7.2433864999999997e-01	   4.6898153999999997e-01	   3.4113048000000001e-01	   8.8928784000000005e-01	   8.0636556000000004e-01	
   5.2062293165162554e-01	  -8.5378671987708199e-01	  -4.5790352607693374e-01	  -8.8900189021526321e-01	  -9.9741308397120509e-01	  -7.1882820778331705e-02	   0.0000000000000000e+00	   0.0000000000000000e+00	   0.0000000000000000e+00	   0.0000000000000000e+00	   0.0000000000000000e+00	   0.0000000000000000e+00	   0.0000000000000000e+00	   0.0000000000000000e+00	   0.0000000000000000e+00	   0.0000000000000000e+00	   0.0000000000000000e+00	   0.0000000000000000e+00	   4.9586532000000000e-01	   9.0141738999999999e-01	   4.4395461000000003e-01	   8.5462232999999999e-01	   6.2895334000000003e-01	   5.4830299000000005e-01	
  -9.5781732418805121e-01	   2.8737775398461440e-01	   8.3482805302951690e-01	  -5.5051078270543086e-01	  -6.4140821963165395e-01	   7.6719977567055631e-01	  -9.9968413317620841e-01	  -2.5132327304346586e-02	   9.9873673224853443e-01	   5.0248777671892939e-02	  -9.9715839572202181e-01	  -7.5333484195833147e-02	   9.9495012068496136e-01	   1.0037060002301894e-01	   9.6473725324521686e-01	  -2.6321480239696693e-01	   9.5029230969895806e-01	  -3.1135915937550246e-01	   6.5044033999999995e-01	   5.6954309999999997e-01	   7.9518736000000001e-01	   2.4965892000000001e-01	   6.2690756000000003e-01	   9.0735960999999998e-01	
   9.9888430448859433e-01	  -4.7224424256281421e-02	   9.9553970750732546e-01	  -9.4343472356219940e-02	   9.8997367215987275e-01	  -1.4125200327888018e-01	  -8.0119351212885515e-01	  -5.9840534432993675e-01	   2.8382208775473977e-01	   9.5887695900075776e-01	   3.4640068151292652e-01	  -9.3808665263256996e-01	  -8.3889004500508157e-01	   5.4430092080702219e-01	  -8.2855897198146844e-01	  -5.5990180384511379e-01	  -7.7204027626574245e-01	   6.3557360850141986e-01	   3.1300602999999999e-01	   6.1145923000000002e-01	   1.2603991000000000e-01	   3.9130886999999998e-01	   4.4806550000000001e-02	   9.6047642000000000e-01	
  -7.6816101855108632e-01	   6.4025670600045859e-01	   1.8014270084288472e-01	  -9.8364048683095129e-01	   4.9140381742305839e-01	   8.7093185050384136e-01	  -3.9434923692859325e-01	   9.1896065167875185e-01	  -6.8897735866767240e-01	  -7.2478286351383714e-01	   9.3774462823194205e-01	  -3.4732551334754669e-01	  -5.0620398486634965e-02	   9.9871796582271133e-01	  -2.8544700828396075e-01	  -9.5839449365161544e-01	   8.9129443129178432e-01	   4.5342500675222452e-01	   3.2644214999999999e-01	   4.5652431999999998e-01	   1.4974957000000000e-01	   1.5671549000000001e-01	   4.4814314999999999e-01	   6.0570250999999997e-01	
  -8.7050383605628801e-01	   4.9216163138880226e-01	   5.1555385717742552e-01	  -8.5685717616734636e-01	  -2.7079384676841040e-02	   9.9963328622326486e-01	  -7.7449694039201522e-01	  -6.3257765477718808e-01	   1.9969102135318545e-01	   9.7985891637057709e-01	   4.6517677026841781e-01	  -8.8521781071250683e-01	  -9.2024699198184323e-01	   3.9133805558413209e-01	   9.8553300818035083e-01	   1.6948359739806232e-01	   3.6287210706986406e-01	  -9.3183895277600259e-01	   5.5138945000000002e-02	   8.7777559999999999e-01	   8.6444631999999993e-02	   9.1470059999999997e-01	   1.6022053999999999e-01	   8.6690022000000000e-01	
  -7.2533441173990987e-01	  -6.8839668153319777e-01	   5.2220017708162078e-02	   9.9863560408717611e-01	   6.4958046008911496e-01	  -7.6029285533300506e-01	   2.5002135203032464e-02	   9.9968739775756366e-01	  -9.9874978647057855e-01	   4.9988638959004600e-02	  -7.4943889593707097e-02	  -9.9718775233782642e-01	   9.9500227195005253e-01	  -9.9852284972521368e-02	   6.7004657815713176e-01	  -7.4231905748129545e-01	  -7.0631639621659792e-01	   7.0789628367127200e-01	   9.3194966000000001e-01	   1.8940956000000000e-01	   1.0041213000000000e-01	   7.6597291999999995e-01	   6.9191013999999995e-01	   1.6323197000000000e-01	
   5.5738692886845886e-01	  -8.3025285999301901e-01	  -3.7863962305317517e-01	  -9.2554418363152680e-01	  -9.7948448215149908e-01	  -2.0151960009986522e-01	  -6.8820836170372779e-01	  -7.2551309490668126e-01	  -5.2738501762142079e-02	   9.9860835688065641e-01	   7.6079851749659344e-01	  -6.4898814763829527e-01	  -9.9443730086376902e-01	  -1.0533021717808061e-01	  -9.8595766716029298e-01	   1.6699544475174471e-01	   2.1876097685702439e-01	   9.7577847639951576e-01	   6.3366076000000005e-01	   3.5742994000000000e-01	   5.3749687999999995e-01	   1.6990314000000001e-01	   1.5714527000000000e-01	   7.9270034000000003e-02	
   7.6097878776085659e-01	   6.4877676020185648e-01	   1.5817743084396574e-01	   9.8741070501164940e-01	  -5.2023944861132099e-01	   8.5402044244185904e-01	   1.2327674308202440e-01	   9.9237233164527949e-01	  -9.6960568923017709e-01	   2.4467285793988924e-01	  -3.6233640596621985e-01	  -9.3204738555047872e-01	   8.8027038517505352e-01	  -4.7447239011744707e-01	  -5.5001711972912126e-01	   8.3515337992783190e-01	   7.3763909274845207e-01	  -6.7519520795784715e-01	   7.7650028000000004e-01	   4.4100043999999999e-01	   5.6154806999999995e-01	   9.3932313000000001e-01	   5.4448284000000002e-01	   4.1956911000000002e-01	
  -5.9736643639658216e-01	   8.0196841625269011e-01	  -2.8630668133369624e-01	  -9.5813802983896079e-01	   9.3942644028626632e-01	   3.4275058466919367e-01	   0.0000000000000000e+00	   0.0000000000000000e+00	   0.0000000000000000e+00	   0.0000000000000000e+00	   0.0000000000000000e+00	   0.0000000000000000e+00	   0.0000000000000000e+00	   0.0000000000000000e+00	   0.0000000000000000e+00	   0.0000000000000000e+00	   0.0000000000000000e+00	   0.0000000000000000e+00	   1.2838809000000001e-01	   3.5759326000000001e-02	   7.3669890000000005e-01	   7.5920354000000001e-01	   9.3400446999999998e-01	   3.8636867000000003e-01	
  -7.6296206416383683e-01	  -6.4644326019137777e-01	   1.6422222270628523e-01	   9.8642336832082766e-01	   5.1237141212871617e-01	  -8.5876395827562846e-01	   6.9794481003536557e-01	  -7.1615154970487727e-01	  -2.5746084289394757e-02	  -9.9966851463060658e-01	  -7.3388350185239792e-01	  -6.7927535337951239e-01	  -9.9867427828752675e-01	   5.1475099678267307e-02	  -9.9545675551934787e-01	   9.5214746184051027e-02	  -6.9554070354691064e-02	  -9.9757818304987744e-01	   8.3680429000000001e-01	   9.1981645000000001e-01	   2.1343392000000000e-01	   7.1300145999999995e-02	   6.2903880000000001e-01	   7.6412068000000000e-01	
   8.0732729093560895e-01	  -5.9010392755053798e-01	   3.0355470937885887e-01	  -9.5281401039967739e-01	  -3.1719128858844770e-01	  -9.4836158001239168e-01	  -5.3780772676142219e-01	   8.4306752341417557e-01	  -4.2152569807142298e-01	  -9.0681645654751963e-01	   9.9120728166404937e-01	   1.3231827075716340e-01	  -6.4463217173079912e-01	   7.6449287973769486e-01	   6.3310601666472982e-02	   9.9799387158270125e-01	  -9.3168431184754730e-01	  -3.6326896792481767e-01	   6.9613860999999999e-01	   5.2914450999999996e-01	   9.7309447999999998e-01	   8.1696433000000002e-01	   6.6763687000000005e-01	   8.7969326000000003e-01	
   5.1006487977200121e-01	   8.6013593020125256e-01	  -4.7966763684634794e-01	   8.7745025965136059e-01	  -9.9938811080910595e-01	   3.4977192188712397e-02	   0.0000000000000000e+00	   0.0000000000000000e+00	   0.0000000000000000e+00	   0.0000000000000000e+00	   0.0000000000000000e+00	   0.0000000000000000e+00	   0.0000000000000000e+00	   0.0000000000000000e+00	   0.0000000000000000e+00	   0.0000000000000000e+00	   0.0000000000000000e+00	   0.0000000000000000e+00	   7.4366648000000002e-01	   5.5465629999999999e-01	   1.9349874000000000e-01	   7.6230061000000005e-01	   8.6353113000000004e-01	   1.7753421999999999e-01	
  -8.8339616570643720e-01	   4.6862694589104131e-01	   5.6077757116967009e-01	  -8.2796649429372782e-01	  -1.0738134666447288e-01	   9.9421790689391842e-01	   8.7701916497579735e-01	   4.8045539258619546e-01	   5.3832523146968958e-01	   8.4273717442812801e-01	   6.7223925002102655e-02	   9.9773791343584395e-01	  -4.2041189032621024e-01	   9.0733336898426842e-01	  -9.9990971085523062e-01	  -1.3437638833106860e-02	  -5.4960102432613067e-01	   8.3542726437414527e-01	   9.0814494000000001e-01	   4.7838828000000000e-01	   4.1911997000000001e-01	   1.8678417999999999e-01	   6.3443331999999997e-01	   4.0591326999999999e-01	
  -2.3048691779318312e-01	  -9.7307542396578817e-01	  -8.9375156145239687e-01	   4.4856231050033885e-01	   6.4248300313719842e-01	   7.6629993519496442e-01	   0.0000000000000000e+00	   0.0000000000000000e+00	   0.0000000000000000e+00	   0.0000000000000000e+00	   0.0000000000000000e+00	   0.0000000000000000e+00	   0.0000000000000000e+00	   0.0000000000000000e+00	   0.0000000000000000e+00	   0.0000000000000000e+00	   0.0000000000000000e+00	   0.0000000000000000e+00	   1.8450691999999999e-01	   5.8741968000000000e-01	   6.8900815000000004e-01	   7.0965964000000004e-01	   7.0029231999999997e-01	   9.8825742999999999e-01	
   9.9906560258904009e-01	  -4.3219460008173616e-02	   9.9626415655320377e-01	  -8.6358151713277792e-02	   9.9160089722033651e-01	  -1.2933545775162963e-01	   5.2358476449525149e-01	  -8.5197358784674304e-01	  -4.5171798877690406e-01	  -8.9216078069782290e-01	  -9.9661007803929946e-01	  -8.2269996660395556e-02	  -5.9190171723069762e-01	   8.0601014704490614e-01	   4.8627368983892660e-01	  -8.7380655672204444e-01	   5.5991736665485159e-01	   8.2854845514206132e-01	   5.3602978999999995e-01	   7.4793394000000002e-01	   5.1835478000000001e-01	   4.1316714999999998e-01	   1.1173928000000000e-02	   8.7182791000000003e-03	
  -6.1436620930473851e-01	   7.8902101420971438e-01	  -2.4510832172905259e-01	  -9.6949569912360478e-01	   9.1553875028418708e-01	   4.0222978100591827e-01	   4.9755971482406192e-01	   8.6742972636646376e-01	  -5.0486866036839639e-01	   8.6319617456162356e-01	  -9.9996432817707281e-01	  -8.4464414622586140e-03	  -4.9021527155564171e-01	  -8.7160139257210256e-01	  -9.9010415835252785e-01	  -1.4033444200563330e-01	   3.7873640655411667e-01	   9.2550458364638843e-01	   8.8883670000000004e-01	   7.9961996999999996e-01	   6.1830443000000002e-01	   8.2849834000000000e-01	   8.7569995000000000e-01	   1.3026741999999999e-01	
  -2.8524387263837081e-01	  -9.5845497188040341e-01	  -8.3727186624452976e-01	   5.4678681585733413e-01	   7.6289721179586167e-01	   6.4651979415490457e-01	   0.0000000000000000e+00	   0.0000000000000000e+00	   0.0000000000000000e+00	   0.0000000000000000e+00	   0.0000000000000000e+00	   0.0000000000000000e+00	   0.0000000000000000e+00	   0.0000000000000000e+00	   0.0000000000000000e+00	   0.0000000000000000e+00	   0.0000000000000000e+00	   0.0000000000000000e+00	   4.7622002000000002e-01	   4.7968434999999998e-01	   9.9388991999999998e-01	   5.4520647000000000e-01	   7.2729621000000000e-01	   5.9146546000000000e-01	
   9.6043859927334929e-01	   2.7849182577922604e-01	   8.4488460594830639e-01	   5.3494859812095497e-01	   6.6248097569586484e-01	   7.4907873874583764e-01	   7.9411343922425059e-01	  -6.0776956623660627e-01	   2.6123230871313502e-01	  -9.6527596099996471e-01	  -3.7921726500689207e-01	  -9.2530766014374510e-01	  -8.6351536176881061e-01	  -5.0432253567462171e-01	   9.3195605538696202e-01	  -3.6257124931187501e-01	   5.9343834307840038e-01	   8.0487945244263925e-01	   2.7321804000000002e-02	   6.0965994000000001e-01	   7.5720936000000005e-01	   6.9858421000000004e-01	   2.5439425000000002e-02	   7.6115032000000005e-01	
  -9.2459694159095984e-01	   3.8094684091175141e-01	   7.0975900879871356e-01	  -7.0444456803148658e-01	  -3.8788507601288269e-01	   9.2170774533280353e-01	   8.3030237417079622e-01	   5.5731316819750365e-01	   3.7880406510732190e-01	   9.2547689342207129e-01	  -2.0125854496247972e-01	   9.7953815549961376e-01	  -7.1301496051633562e-01	   7.0114881878235258e-01	  -9.8000172657738960e-01	  -1.9898898438188828e-01	  -5.5538834493067235e-01	   8.3159111726567192e-01	   3.5806747999999999e-01	   8.6757947999999996e-01	   7.3205233999999997e-01	   4.9772812999999999e-01	   3.0142297000000001e-01	   8.2684687000000001e-01	
   1.6890462803821629e-01	  -9.8563239933926272e-01	  -9.4294245325454362e-01	  -3.3295574758562568e-01	  -4.8743931669501922e-01	   8.7315686594099040e-01	   0.0000000000000000e+00	   0.0000000000000000e+00	   0.0000000000000000e+00	   0.0000000000000000e+00	   0.0000000000000000e+00	   0.0000000000000000e+00	   0.0000000000000000e+00	   0.0000000000000000e+00	   0.0000000000000000e+00	   0.0000000000000000e+00	   0.0000000000000000e+00	   0.0000000000000000e+00	   2.8106929000000003e-01	   8.4947523000000003e-01	   4.3426817000000000e-02	   9.4377274000000000e-01	   3.3963515000000000e-01	   1.8888384999999999e-01	
   8.5672696154887207e-01	   5.1577021371463228e-01	   4.6796217328952500e-01	   8.8374849610629869e-01	  -5.4895339864589048e-02	   9.9849211397043658e-01	  -9.7285209302026177e-01	  -2.3142775353465250e-01	   8.9288238978780832e-01	   4.5028994881832796e-01	  -7.6443291043174266e-01	  -6.4470328481314210e-01	   5.9447792398637511e-01	   8.0411193119667712e-01	  -7.1410507578964444e-01	  -7.0003852803361200e-01	  -9.5283215958977441e-01	  -3.0349773582596390e-01	   7.1930673000000001e-01	   9.8462707000000005e-01	   4.2269416999999998e-01	   9.3585585000000004e-01	   1.7765892000000000e-01	   5.4953971999999995e-01	
  -7.6859390853061049e-01	   6.3973698014859159e-01	   1.8147319246072099e-01	  -9.8339589200795130e-01	   4.8963552795678361e-01	   8.7192720439408344e-01	  -5.9437319701619429e-01	   8.0418934503557571e-01	  -2.9344100533749651e-01	  -9.5597718403030907e-01	   9.4320013397238223e-01	   3.3222508525769129e-01	  -8.2778475277303865e-01	   5.6104581192312564e-01	  -5.7638044440222046e-02	  -9.9833754603996894e-01	   9.7130128168124441e-01	   2.3785251775916083e-01	   8.5093138999999995e-01	   6.0786400999999997e-02	   5.4866034000000001e-02	   5.0547748000000003e-02	   5.9076693999999999e-02	   6.5202821000000000e-01	
  -5.4819460444460111e-01	  -8.3635080896584735e-01	  -3.9896535131565469e-01	   9.1696600179590970e-01	   9.8561591034777440e-01	  -1.6900082032146474e-01	  -1.7860519625640654e-03	  -9.9999840500792148e-01	  -9.9999362003677406e-01	   3.5720982276506667e-03	   5.3581330978014026e-03	   9.9998564510182153e-01	   9.9997448022850399e-01	  -7.1441508755906696e-03	  -8.3537037094379740e-01	   5.4968749608229428e-01	   8.3732857904206759e-01	  -5.4669996407480403e-01	   9.1591657999999998e-01	   5.8931489000000004e-01	   3.8025431999999998e-01	   4.9310388999999999e-01	   8.6797665000000002e-01	   6.1651536000000000e-02	
   8.9245077469053768e-01	  -4.5114478247482720e-01	   5.9293677049148164e-01	  -8.0524902123450737e-01	   1.6588298564471726e-01	  -9.8614544316423958e-01	  -5.3397505032572967e-01	   8.4550023396190399e-01	  -4.2974129125926885e-01	  -9.0295205996044792e-01	   9.9291730558015401e-01	   1.1880750935629888e-01	  -6.3064484517363251e-01	   7.7607156838523927e-01	  -9.5103428195457598e-02	   9.9546739672651829e-01	  -8.5798946646177499e-01	  -5.1366728087414582e-01	   4.3152274000000002e-01	   1.8600328999999999e-01	   1.7872371000000001e-01	   7.6912581000000002e-01	   2.8181739000000000e-01	   9.2094215999999995e-01	
   2.1842976777763995e-01	   9.7585267153838662e-01	  -9.0457687309721257e-01	   4.2631054485863867e-01	  -6.1360280043293558e-01	  -7.8961484490912337e-01	   4.4012795544339939e-01	  -8.9793506604721318e-01	  -6.1257476567442604e-01	  -7.9041264948058743e-01	  -9.7935051378840843e-01	   2.0216965930223149e-01	  -2.4950431291784397e-01	   9.6837368708334626e-01	   9.7238938017011978e-01	   2.3336429318207674e-01	  -7.8011528597022139e-01	   6.2563578909426187e-01	   9.7340895999999996e-02	   1.0425172000000001e-01	   5.1975826000000003e-01	   5.0688496000000005e-01	   9.8037342999999999e-01	   9.0469071999999995e-01	
  -9.3913609159653988e-01	  -3.4354534120080188e-01	   7.6395319707844922e-01	   6.4527165804304165e-01	  -4.9577594773733219e-01	  -8.6845046470432041e-01	   2.9781748995656679e-02	   9.9955642533413780e-01	  -9.9822609485351943e-01	   5.9537077132594270e-02	  -8.9239586991340630e-02	  -9.9601018875994185e-01	   9.9291067289301504e-01	  -1.1886292801012470e-01	   3.1542383783817979e-01	  -9.4895089573878044e-01	  -3.7136206854356035e-01	   9.2848813349824133e-01	   9.6949507000000001e-01	   1.5785864999999999e-01	   6.0785133999999996e-01	   1.3009201999999999e-02	   1.5204972999999999e-01	   3.5381442000000002e-01	
   7.2343330411971940e-01	  -6.9039427466515513e-01	   4.6711491019148788e-02	  -9.9890842253270040e-01	  -6.5584800754303518e-01	  -7.5489296658654248e-01	  -9.1862282439716980e-01	  -3.9513555458420418e-01	   6.8773578700686677e-01	   7.2596107834376733e-01	  -3.4491675780134740e-01	  -9.3863327779692884e-01	  -5.4038974540091052e-02	   9.9853882710220909e-01	  -9.3736166969500889e-01	   3.4835771871251120e-01	  -3.9176302049185785e-01	   9.2006615836856875e-01	   9.0554630000000003e-01	   1.9606881000000001e-01	   5.0033925999999995e-01	   5.6229861000000003e-01	   7.6018459000000005e-01	   5.7854501999999997e-01	
   3.4508387494506743e-01	   9.3857185087392059e-01	  -7.6183423850579413e-01	   6.4777202242787302e-01	  -8.7087729712387574e-01	  -4.9150049171309351e-01	   5.9202782933421114e-02	   9.9824597694803574e-01	  -9.9299006098587639e-01	   1.1819787977483091e-01	  -1.7677833300460422e-01	  -9.8425069010903576e-01	   9.7205852243346924e-01	  -2.3473863969202127e-01	  -9.1649564846936615e-01	   4.0004465542826084e-01	   9.5735549995375957e-01	  -2.8891252431884462e-01	   5.6474228999999998e-01	   8.3179641000000004e-01	   8.2523579000000002e-01	   5.0489280999999997e-01	   8.3927484999999996e-02	   4.0613567000000000e-01	
  -9.8184441002763678e-01	  -1.8968804521498431e-01	   9.2803689100503617e-01	   3.7248829368680392e-01	  -8.4053125743780688e-01	  -5.4176305269925817e-01	  -4.1007085372537033e-01	  -9.1205366888409911e-01	  -6.6368378984989185e-01	   7.4801325328531754e-01	   9.5438561034023894e-01	   2.9857680213889626e-01	  -1.1904765418096928e-01	  -9.9288854159669315e-01	   2.2962009786373583e-01	   9.7328033508185519e-01	   5.7563145302729490e-01	  -8.1770925779624459e-01	   1.5521019999999999e-01	   6.7690097000000005e-01	   3.9604307000000000e-01	   6.6065543000000004e-01	   6.6851232000000005e-01	   5.5394715000000005e-01	
   8.7718260240268076e-01	  -4.8015693480575761e-01	   5.3889863591587894e-01	  -8.4237061926921752e-01	   6.8242413365210128e-02	  -9.9766876919050229e-01	  -2.1156199754185354e-01	  -9.7736457946669053e-01	  -9.1048304239220157e-01	   4.1354640551725336e-01	   5.9680921989481006e-01	   8.0238317221172339e-01	   6.5795874096751883e-01	  -7.5305397893141590e-01	  -6.5486688423771700e-01	  -7.5574424505171356e-01	   2.8370987709117174e-01	   9.5891016557387287e-01	   7.7568884999999999e-01	   5.9118263999999998e-01	   4.2215070999999998e-01	   5.1011287000000005e-01	   2.7775594999999997e-01	   2.5586123000000000e-01	
  -9.9294314946782547e-01	   1.1859132314345638e-01	   9.7187219615016862e-01	  -2.3550888380324039e-01	  -9.3708452918329599e-01	   3.4910254247902650e-01	   9.8290788324546552e-01	  -1.8409805282489658e-01	   9.3221581389216313e-01	  -3.6190285482346196e-01	   8.4965666147592434e-01	  -5.2733628512514341e-01	   7.3805264734125642e-01	  -6.7474312871830189e-01	  -9.5413921755386755e-01	   2.9936324678506104e-01	  -9.9780408089914452e-01	  -6.6234553980633201e-02	   2.2194174999999999e-01	   4.4229339000000001e-01	   2.9983010999999998e-01	   3.0589000999999999e-01	   5.5432308000000000e-02	   8.9776138999999999e-01	
   5.1101867944708468e-01	   8.5956960698721641e-01	  -4.7771981851231532e-01	   8.7851225091091389e-01	  -9.9926618105081344e-01	   3.8302733689945918e-02	   3.1287176429025798e-01	   9.4979537749449028e-01	  -8.0422251821980251e-01	   5.9432831094286553e-01	  -8.1610880060502566e-01	  -5.7789828306980340e-01	   2.9354771762360116e-01	  -9.5594442175158623e-01	  -6.5653192352732681e-01	   7.5429823902055371e-01	   9.7629855517510100e-01	  -2.1642812008380569e-01	   6.9745040999999997e-01	   4.5628059999999998e-01	   8.3622041000000003e-01	   9.2224114000000001e-01	   1.3156071000000000e-02	   1.7719848999999999e-01	
   2.0188812443964237e-02	  -9.9979618515580582e-01	  -9.9918482370420492e-01	  -4.0369395328603008e-02	  -6.0533522449203563e-02	   9.9816616485427501e-01	   0.0000000000000000e+00	   0.0000000000000000e+00	   0.0000000000000000e+00	   0.0000000000000000e+00	   0.0000000000000000e+00	   0.0000000000000000e+00	   0.0000000000000000e+00	   0.0000000000000000e+00	   0.0000000000000000e+00	   0.0000000000000000e+00	   0.0000000000000000e+00	   0.0000000000000000e+00	   7.9897744000000004e-01	   1.0340134000000001e-02	   4.9272074999999999e-01	   7.2912332000000002e-01	   1.4542400999999999e-01	   5.8923868000000001e-01	
  -6.4140821963107419e-01	   7.6719977567104103e-01	  -1.7719099157939122e-01	  -9.8417648442904393e-01	   8.6871173651827827e-01	   4.9531799768976448e-01	   8.5532880059801780e-02	   9.9633534837858462e-01	  -9.8536825285735108e-01	   1.7043886370441261e-01	  -2.5409564923257050e-01	  -9.6717909460506768e-01	   9.4190118747829732e-01	  -3.3589009069481846e-01	  -8.1924974808825413e-01	  -5.7343687556463629e-01	   7.0952676345010290e-01	   7.0467848835339209e-01	   8.4686607000000003e-01	   9.4159585999999995e-01	   5.3784703000000000e-01	   3.2934529000000001e-01	   9.4645277999999999e-02	   9.1787079999999999e-01	
   9.7003125319448757e-01	  -2.4298017990348905e-01	   8.8192126434813622e-01	  -4.7139673682640704e-01	   7.4095112535449148e-01	  -6.7155895484753436e-01	   6.4904476360812746e-01	  -7.6075021842446411e-01	  -1.5748178966573975e-01	  -9.8752189136427537e-01	  -8.5347022550049689e-01	  -5.2114160665229081e-01	  -9.5039897184735145e-01	   3.1103342957228464e-01	   4.4474648048771620e-01	  -8.9565650117318385e-01	   8.1444093035650678e-01	   5.8024647431934273e-01	   8.6386870000000004e-01	   2.1529398999999999e-01	   9.3838275000000004e-01	   4.2993400999999998e-01	   5.0790226000000005e-01	   1.9699185000000000e-01	
  -7.4425603948470431e-01	  -6.6789441357937873e-01	   1.0783410461891564e-01	   9.9416890208909514e-01	   5.8374367223459755e-01	  -8.1193800571599484e-01	  -7.1353655006568273e-01	   7.0061800699123011e-01	   1.8268816559273159e-02	  -9.9983311124483354e-01	   6.8746561338270951e-01	   7.2621693068692283e-01	  -9.9933250068304724e-01	  -3.6531535398438439e-02	   9.9899273970202518e-01	  -4.4872107401387688e-02	   6.3115033856903799e-02	   9.9800625874853199e-01	   8.7062484999999995e-02	   6.5568077000000002e-01	   3.3139590000000002e-01	   1.9491269000000000e-01	   9.5807690000000001e-01	   4.5322902999999998e-01	
   4.1987554961578528e-02	   9.9911813377015057e-01	  -9.9647409045669688e-01	   8.3901055109567926e-02	  -1.2566657624325780e-01	  -9.9207253344465574e-01	   7.7988221875702579e-01	  -6.2592629347760942e-01	   2.1643255026676306e-01	  -9.7629757307135878e-01	  -4.4229842373045569e-01	  -8.9686794143037263e-01	  -9.0631390237005016e-01	  -4.2260514711817126e-01	   6.5811965774063497e-01	   7.5291335231575585e-01	  -5.9262896269339849e-01	   8.0547558161433208e-01	   1.7113137000000000e-01	   8.0712225999999998e-01	   5.0445740999999999e-01	   7.1146816000000002e-01	   4.1467701000000001e-01	   7.5351853999999996e-01	
   7.8544288230520631e-01	  -6.1893414725323559e-01	   2.3384104272782028e-01	  -9.7227484115139262e-01	  -4.1810531710241738e-01	  -9.0839856000033770e-01	  -8.5241164081726939e-01	   5.2287129831270185e-01	   4.5321121080157911e-01	  -8.9140316266197228e-01	   7.9766617144958071e-02	   9.9681356671608845e-01	  -5.8919919680753319e-01	  -8.0798781332477887e-01	  -3.4589775492966252e-01	   9.3827221163936170e-01	  -9.9314355721839054e-01	   1.1690113239657410e-01	   3.9965740999999999e-01	   8.9580594000000002e-01	   2.1821591000000001e-01	   5.0154029000000000e-01	   5.6356702000000003e-01	   5.4666499000000002e-01	
  -6.5377815062593803e-01	   7.5668628226242374e-01	  -1.4514825952825669e-01	  -9.8940991644308773e-01	   8.4356767198785265e-01	   5.3702288850382773e-01	  -7.5202480426143981e-01	  -6.5913480698226146e-01	   1.3108261244891381e-01	   9.9137144840547420e-01	   5.5487005232349396e-01	  -8.3193703189275281e-01	  -9.6563469742713570e-01	   2.5990311872850630e-01	   9.9041565236004481e-01	  -1.3811891818366831e-01	  -7.1008808502905198e-03	  -9.9997478842776333e-01	   5.6681848999999995e-01	   1.1749756000000000e-01	   5.5095559999999999e-01	   1.9165251000000000e-01	   5.8420760000000005e-01	   9.1905554000000000e-01	
   8.3007915729374515e-01	  -5.5764557976057327e-01	   3.7806281474698822e-01	  -9.2577994583247725e-01	  -2.0243503195518259e-01	  -9.7929569479157019e-01	  -5.5383259861267709e-01	   8.3262803983167022e-01	  -3.8653890542785863e-01	  -9.2227310195550694e-01	   9.8198829152869860e-01	   1.8894177754151562e-01	  -7.0117534918126589e-01	   7.1298887067087513e-01	   4.5864492586254000e-03	   9.9998948218628680e-01	  -9.2403624273505736e-01	  -3.8230488109894450e-01	   7.4694870999999996e-01	   5.5798236000000001e-01	   4.6047434999999998e-02	   6.0392290999999998e-01	   7.5733245000000005e-01	   8.3761284000000003e-01	
  -7.7830372794549318e-01	   6.2788797334090396e-01	   2.1151338586770468e-01	  -9.7737510076673195e-01	   4.4906041448307654e-01	   8.9350139571479548e-01	  -5.8265600566835141e-01	  -8.1271888070759246e-01	  -3.2102395811720397e-01	   9.4707107352867859e-01	   9.5674907998917991e-01	  -2.9091441686492236e-01	  -7.9388723662952732e-01	  -6.0806500928497187e-01	   9.6377975222488665e-01	   2.6669943607239999e-01	  -5.6813069581869741e-02	  -9.9838483318041527e-01	   6.3666984000000004e-01	   9.7774329000000004e-01	   6.3712626000000006e-01	   5.4484125999999999e-01	   6.1690202999999999e-01	   9.7614727999999995e-01	
   8.1838124493909892e-01	  -5.7467568065120922e-01	   3.3949572413613888e-01	  -9.4060759793512128e-01	  -2.6270737819903134e-01	  -9.6487555334343045e-01	   4.7963158641530938e-02	   9.9884910542740502e-01	  -9.9539907082625467e-01	   9.5815916205131774e-02	  -1.4344812573287566e-01	  -9.8965783744874425e-01	   9.8163862040354233e-01	  -1.9075014792190889e-01	   6.1326643900961331e-01	   7.8987611356748100e-01	  -5.3476214004907741e-01	  -8.4500263524448893e-01	   9.9513551000000000e-01	   6.9356872000000003e-01	   1.6320981000000001e-01	   8.8698633999999998e-01	   7.3068392000000004e-01	   2.2863138999999999e-01	
  -5.5236497296038778e-01	   8.3360238522119767e-01	  -3.8978587329294023e-01	  -9.2090551794484321e-01	   9.8297309968397995e-01	   1.8374951781615226e-01	   0.0000000000000000e+00	   0.0000000000000000e+00	   0.0000000000000000e+00	   0.0000000000000000e+00	   0.0000000000000000e+00	   0.0000000000000000e+00	   0.0000000000000000e+00	   0.0000000000000000e+00	   0.0000000000000000e+00	   0.0000000000000000e+00	   0.0000000000000000e+00	   0.0000000000000000e+00	   8.2359053999999998e-01	   5.6726907999999998e-01	   6.8758925000000004e-01	   3.9869599000000000e-01	   6.2563318000000001e-01	   1.2653956999999999e-01	
   4.4243506882504918e-01	  -8.9680054074123638e-01	  -6.0850241974754804e-01	  -7.9355201793038044e-01	  -9.8088068874748002e-01	   1.9461005740266643e-01	   4.0589232219710314e-01	   9.1392090619563082e-01	  -6.7050284556288597e-01	   7.4190695784045091e-01	  -9.5019623624767391e-01	  -3.1165223025153316e-01	  -1.0085186818414524e-01	  -9.9490145274985287e-01	   9.9918576037779683e-01	   4.0346205004236753e-02	  -6.4002376536412797e-01	  -7.6835511306239357e-01	   4.0955842999999997e-01	   6.8750612000000000e-01	   1.1880621000000000e-01	   7.5589958999999995e-01	   8.9126764999999997e-01	   9.3017773999999998e-01	
  -3.3293863702949422e-01	   9.4294849486753129e-01	  -7.7830372794588543e-01	  -6.2788797334041779e-01	   8.5119340178404901e-01	  -5.2485216276519098e-01	   0.0000000000000000e+00	   0.0000000000000000e+00	   0.0000000000000000e+00	   0.0000000000000000e+00	   0.0000000000000000e+00	   0.0000000000000000e+00	   0.0000000000000000e+00	   0.0000000000000000e+00	   0.0000000000000000e+00	   0.0000000000000000e+00	   0.0000000000000000e+00	   0.0000000000000000e+00	   4.1521881999999999e-01	   4.1613400000000000e-01	   6.9610092999999995e-01	   2.3216843000000001e-01	   6.1030793999999999e-01	   5.8259728000000000e-01	
   4.9545866843232150e-01	  -8.6863151443824027e-01	  -5.0904141575054185e-01	  -8.6074202700384272e-01	  -9.9987663248165592e-01	   1.5707317312116924e-02	   2.9545013787281144e-01	   9.5535816112646299e-01	  -8.2541843206187338e-01	   5.6452140084545821e-01	  -7.8319011698369212e-01	  -6.2178230970257642e-01	   3.6263117597496308e-01	  -9.3193273910246088e-01	   9.7623753822882098e-01	   2.1670318168622102e-01	  -6.8347087443160293e-01	  -7.2997778308911565e-01	   6.9796999000000004e-01	   5.5496045000000005e-01	   8.0064700000000000e-01	   2.4233271000000001e-01	   1.6095793000000000e-01	   8.3131217999999996e-01	
  -2.4669653506110339e-01	   9.6909278172363134e-01	  -8.7828163917769153e-01	  -4.7814366280789206e-01	   6.8003460944694905e-01	  -7.3318001197136806e-01	   7.9813392111342876e-03	  -9.9996814860494276e-01	  -9.9987259644879367e-01	  -1.5962169988691974e-02	  -2.3941983931485101e-02	   9.9971334961849168e-01	   9.9949041825850415e-01	   3.1920272703100910e-02	   9.6709294603805940e-01	   2.5442333565030373e-01	  -9.7103088349512767e-01	  -2.3895401921430767e-01	   4.3536578999999997e-01	   4.5170589999999999e-01	   4.0073591999999998e-02	   2.3765174999999999e-01	   4.5646409999999998e-01	   4.3854770999999998e-01	
   4.3235533059560721e-01	  -9.0170331490217071e-01	  -6.2613773621112634e-01	  -7.7971246962736585e-01	  -9.7378330647150035e-01	   2.2747762975165733e-01	   2.9781748995656679e-02	   9.9955642533413780e-01	  -9.9822609485351943e-01	   5.9537077132594270e-02	  -8.9239586991340630e-02	  -9.9601018875994185e-01	   9.9291067289301504e-01	  -1.1886292801012470e-01	   9.1417964008828867e-01	   4.0530924693133630e-01	  -8.8842704422282348e-01	  -4.5901785051727273e-01	   9.4103612999999997e-01	   1.7656638999999999e-01	   8.8424137000000003e-01	   2.6206210000000002e-01	   1.8693171000000000e-01	   1.4419333000000001e-01	
  -5.5274528423588953e-01	   8.3335025694781284e-01	  -3.8894530150997147e-01	  -9.2126084928934071e-01	   9.8272064670657533e-01	   1.8509492304385430e-01	   0.0000000000000000e+00	   0.0000000000000000e+00	   0.0000000000000000e+00	   0.0000000000000000e+00	   0.0000000000000000e+00	   0.0000000000000000e+00	   0.0000000000000000e+00	   0.0000000000000000e+00	   0.0000000000000000e+00	   0.0000000000000000e+00	   0.0000000000000000e+00	   0.0000000000000000e+00	   4.7058146000000001e-01	   7.1469884999999997e-02	   4.9976246000000002e-01	   4.8757648999999997e-01	   9.3300770000000000e-01	   2.6871382999999999e-01	
   5.3646091512072884e-02	  -9.9856001164951436e-01	  -9.9424419373095663e-01	  -1.0713768353049283e-01	  -1.6032072151654803e-01	   9.8706497569937790e-01	   0.0000000000000000e+00	   0.0000000000000000e+00	   0.0000000000000000e+00	   0.0000000000000000e+00	   0.0000000000000000e+00	   0.0000000000000000e+00	   0.0000000000000000e+00	   0.0000000000000000e+00	   0.0000000000000000e+00	   0.0000000000000000e+00	   0.0000000000000000e+00	   0.0000000000000000e+00	   3.4023712999999997e-02	   3.0911512000000002e-01	   2.0495543999999999e-01	   5.8442808999999996e-01	   6.3459217999999995e-01	   8.0661643999999999e-01	
   3.6188297198971880e-01	   9.3222353251990397e-01	  -7.3808142916777675e-01	   6.7471164501411429e-01	  -8.9608117430502709e-01	  -4.4389022185234450e-01	   0.0000000000000000e+00	   0.0000000000000000e+00	   0.0000000000000000e+00	   0.0000000000000000e+00	   0.0000000000000000e+00	   0.0000000000000000e+00	   0.0000000000000000e+00	   0.0000000000000000e+00	   0.0000000000000000e+00	   0.0000000000000000e+00	   0.0000000000000000e+00	   0.0000000000000000e+00	   2.4834043000000000e-01	   9.5582988000000002e-01	   1.0295743000000000e-01	   8.2718659000000005e-01	   9.1882069000000000e-01	   4.8950892000000001e-01	
  -4.9085790705768040e-01	  -8.7123964273841070e-01	  -5.1811703015790722e-01	   8.5530973516051501e-01	   9.9950158912618314e-01	   3.1568549764513003e-02	   9.9817027943360737e-01	  -6.0465636980306617e-02	   9.9268781348913160e-01	  -1.2071000352152743e-01	   9.8357266492795914e-01	  -1.8051263891072203e-01	   9.7085819009966567e-01	  -2.3965469892410088e-01	  -5.4263983421063333e-01	  -8.3996548162877294e-01	  -4.3727971428928775e-01	  -8.9932555366289846e-01	   9.0086695999999999e-01	   7.2856484999999999e-02	   2.8246363000000002e-01	   7.4593138000000003e-01	   9.7666052000000003e-01	   1.6481912000000001e-01	
  -2.7096199193412490e-01	   9.6259004717849184e-01	  -8.5315919785418248e-01	  -5.2165063319889493e-01	   7.3330942330910398e-01	  -6.7989505784795146e-01	   3.7152636905903186e-01	   9.2842240230070494e-01	  -7.2393631418762416e-01	   6.8986680815968926e-01	  -9.0944922953924467e-01	  -4.1581498156087909e-01	   4.8167573999124927e-02	  -9.9883926875901252e-01	  -9.9435968904849248e-01	   1.0606040163692274e-01	   7.9302063901591624e-01	   6.0919476860425170e-01	   8.5366217000000000e-01	   8.4202984999999997e-01	   9.1382452999999997e-01	   3.6010881000000000e-01	   5.4081407000000004e-01	   6.1906989999999995e-01	
  -1.5046450327486111e-01	  -9.8861541220752236e-01	  -9.5472086650849863e-01	   2.9750305385535381e-01	   4.3776770516555275e-01	   8.9908811376532261e-01	  -9.8161377011024953e-01	  -1.9087798807076262e-01	   9.2713118734011557e-01	   3.7473692300240102e-01	  -8.3855571027319609e-01	  -5.4481585950504008e-01	   7.1914447707738516e-01	   6.9486057672679513e-01	  -4.1006892530517557e-02	   9.9915886362729656e-01	   3.3640294918532188e-01	   9.4171814030495227e-01	   2.9901294000000000e-01	   9.1321580999999996e-01	   4.0650281999999999e-01	   4.0136907999999999e-01	   8.5502993000000005e-01	   6.2559485999999997e-01	
  -3.7292582592917178e-02	   9.9930438970493396e-01	  -9.9721852656710086e-01	  -7.4533282977071888e-02	   1.1167029112329874e-01	  -9.9374531248224651e-01	  -8.8605585358109518e-01	   4.6357849856812477e-01	   5.7018995133064632e-01	  -8.2151288450124460e-01	  -1.2438443447818268e-01	   9.9223410164111103e-01	  -3.4976683880311038e-01	  -9.3683678326252695e-01	  -4.3021271749033879e-01	  -9.0272754345349293e-01	   4.9629933969356022e-01	  -8.6815146456118830e-01	   2.5779269999999999e-01	   3.6880628999999998e-01	   7.8096018000000000e-01	   6.5874904000000001e-01	   4.3351130999999998e-01	   2.9978302000000001e-01	
   9.9464152469519240e-01	  -1.0338393178837271e-01	   9.7862352529595420e-01	  -2.0565990308594162e-01	   9.5211766591071234e-01	  -3.0573182735975857e-01	   6.6220734320955621e-01	  -7.4932064872078696e-01	  -1.2296286919868220e-01	  -9.9241127200290691e-01	  -8.2506117306052318e-01	  -5.6504341488773535e-01	  -9.6976026559685558e-01	   2.4405947486118254e-01	   5.8119120667933655e-01	  -8.1376703132937056e-01	   7.3612663634927455e-01	   6.7684383372909807e-01	   7.9043790999999997e-01	   7.2899208999999998e-01	   6.2393421999999998e-01	   3.0957040000000002e-01	   7.9408104000000002e-01	   8.3602018000000000e-01	
  -6.8878280730062302e-01	  -7.2496775401880653e-01	  -5.1156488734145592e-02	   9.9869064963100218e-01	   7.5925422714451807e-01	  -6.5079414453664275e-01	   0.0000000000000000e+00	   0.0000000000000000e+00	   0.0000000000000000e+00	   0.0000000000000000e+00	   0.0000000000000000e+00	   0.0000000000000000e+00	   0.0000000000000000e+00	   0.0000000000000000e+00	   0.0000000000000000e+00	   0.0000000000000000e+00	   0.0000000000000000e+00	   0.0000000000000000e+00	   5.9877661000000004e-01	   9.3835318000000001e-02	   6.8551991999999995e-01	   2.2460580999999999e-01	   1.6377699000000001e-01	   5.3048331999999998e-01	
   2.1418751026242275e-01	  -9.7679256264960601e-01	  -9.0824742089516908e-01	  -4.1843353407354145e-01	  -6.0325801783002875e-01	   7.9754608890256906e-01	  -4.5454263717379838e-02	  -9.9896642081198650e-01	  -9.9586781981982175e-01	   9.0814566272790151e-02	   1.3598714073686441e-01	   9.9071060232250074e-01	   9.8350542910536998e-01	  -1.8087860824393248e-01	  -9.8551870576228218e-01	  -1.6956674376963263e-01	   9.6604723460940789e-01	   2.5836551724933354e-01	   5.2773460999999999e-01	   7.2293697000000004e-02	   4.6384930000000002e-01	   6.2704190999999998e-01	   6.2004457999999996e-01	   3.2874437000000001e-01	
   9.9837648989460637e-01	   5.6959498116862947e-02	   9.9351123114855022e-01	   1.1373404759214414e-01	   9.8542002135531048e-01	   1.7013930031623903e-01	  -6.1552626186744541e-01	   7.8811637525906597e-01	  -2.4225484190297791e-01	  -9.7021265275946755e-01	   9.1375469637910345e-01	   4.0626635947999989e-01	  -8.8262518314912630e-01	   4.7007742561302729e-01	  -6.5941766195360607e-01	   7.5177679340588832e-01	  -5.6963623556873100e-01	  -8.2189692731332509e-01	   9.7048981999999995e-01	   5.7746900000000001e-01	   2.8890013999999999e-02	   1.8641483000000000e-01	   3.9677438999999998e-01	   9.5897284999999999e-01	
  -2.1849563325029120e-01	   9.7583792622061694e-01	  -9.0451931650110851e-01	  -4.2643265127844926e-01	   6.1376267494235159e-01	  -7.8949058186124632e-01	   0.0000000000000000e+00	   0.0000000000000000e+00	   0.0000000000000000e+00	   0.0000000000000000e+00	   0.0000000000000000e+00	   0.0000000000000000e+00	   0.0000000000000000e+00	   0.0000000000000000e+00	   0.0000000000000000e+00	   0.0000000000000000e+00	   0.0000000000000000e+00	   0.0000000000000000e+00	   6.4465114000000001e-01	   4.5263924000000000e-01	   8.1888753000000003e-01	   5.5387560999999996e-01	   1.9858390000000001e-01	   4.9543859000000001e-01	
  -6.0548739370815929e-01	  -7.9585489636019735e-01	  -2.6677003212100103e-01	   9.6376021393402622e-01	   9.2853917664493335e-01	  -3.7123442382886496e-01	   9.5599901893152939e-01	  -2.9336986178193797e-01	   8.2786824839609330e-01	  -5.6092260009522210e-01	   6.2688344761092962e-01	  -7.7911304899317069e-01	   3.7073167340483110e-01	  -9.2874002085322760e-01	  -8.1232519530407810e-01	  -5.8320474712933490e-01	  -3.4536551341673927e-01	  -9.3846825313507121e-01	   1.4127588000000000e-02	   2.8714867999999999e-01	   4.8197094000000001e-01	   3.4429989000000000e-01	   8.2718961000000002e-01	   4.8799459000000001e-01	
   9.8150130092427390e-01	   1.9145546814849099e-01	   9.2668960743208428e-01	   3.7582758211361961e-01	   8.3759280957091697e-01	   5.4629505338699302e-01	   0.0000000000000000e+00	   0.0000000000000000e+00	   0.0000000000000000e+00	   0.0000000000000000e+00	   0.0000000000000000e+00	   0.0000000000000000e+00	   0.0000000000000000e+00	   0.0000000000000000e+00	   0.0000000000000000e+00	   0.0000000000000000e+00	   0.0000000000000000e+00	   0.0000000000000000e+00	   4.8467873000000000e-01	   2.8297091000000002e-01	   6.3167496000000001e-01	   5.1219903000000000e-01	   5.0934820000000003e-01	   4.0371321999999998e-01	
  -9.0846527181948056e-01	   4.1796034488687722e-01	   6.5061830020408529e-01	  -7.5940491665484144e-01	  -2.7366299007178535e-01	   9.6182564317290375e-01	   6.4904476360812746e-01	  -7.6075021842446411e-01	  -1.5748178966573975e-01	  -9.8752189136427537e-01	  -8.5347022550049689e-01	  -5.2114160665229081e-01	  -9.5039897184735145e-01	   3.1103342957228464e-01	  -2.7167120392881228e-01	   9.6239012721238448e-01	  -9.0759805125972426e-01	  -4.1984018072303531e-01	   6.0987163000000000e-01	   3.9098449000000002e-01	   5.1526878999999998e-02	   8.2425678999999996e-01	   6.1994216999999996e-01	   1.3545753999999999e-01	
   5.3925289226374595e-01	  -8.4214388211586788e-01	  -4.1841263637036963e-01	  -9.0825704826640175e-01	  -9.9051334090858745e-01	  -1.3741659827731265e-01	   0.0000000000000000e+00	   0.0000000000000000e+00	   0.0000000000000000e+00	   0.0000000000000000e+00	   0.0000000000000000e+00	   0.0000000000000000e+00	   0.0000000000000000e+00	   0.0000000000000000e+00	   0.0000000000000000e+00	   0.0000000000000000e+00	   0.0000000000000000e+00	   0.0000000000000000e+00	   3.8524638000000000e-01	   8.6353519000000001e-01	   1.4944825000000000e-01	   9.8490493000000001e-01	   4.6037586000000003e-01	   2.1280705999999999e-01	
  -3.0163040805197777e-01	   9.5342492989138761e-01	  -8.1803819387679477e-01	  -5.7516390130013506e-01	   7.9512079649429890e-01	  -6.0645108539953296e-01	   5.8217204946328338e-01	  -8.1306562147450334e-01	  -3.2215140964744077e-01	  -9.4668815840389953e-01	  -9.5726714224715603e-01	  -2.8920514928673585e-01	  -7.9243693852433361e-01	   6.0995384945271192e-01	   5.9959624031535974e-01	   8.0030266062264555e-01	  -9.5079782598749218e-01	   3.0981203026586723e-01	   8.3875074000000005e-01	   9.5058485999999998e-01	   1.3102269999999999e-01	   3.1380798999999998e-01	   1.2598856999999999e-01	   3.9542255999999998e-01	
   1.8040104476107433e-01	  -9.8359313898029654e-01	  -9.3491092609822568e-01	  -3.5488245978374017e-01	  -5.1771886041440207e-01	   8.5555080595556265e-01	   0.0000000000000000e+00	   0.0000000000000000e+00	   0.0000000000000000e+00	   0.0000000000000000e+00	   0.0000000000000000e+00	   0.0000000000000000e+00	   0.0000000000000000e+00	   0.0000000000000000e+00	   0.0000000000000000e+00	   0.0000000000000000e+00	   0.0000000000000000e+00	   0.0000000000000000e+00	   8.0138688999999996e-01	   2.9338744000000000e-01	   3.7903379999999998e-01	   1.5621023000000001e-01	   5.4551992000000005e-01	   9.3287514000000005e-01	
