   5.8728970314876416e-01	  -8.0937680012182001e-01	  -3.1018160915087306e-01	  -9.5067732135808047e-01	  -9.5162263346960885e-01	  -3.0726920357947779e-01	   7.4557638876918064e-01	   6.6642017414684229e-01	   1.1176830298018488e-01	   9.9373429368666233e-01	  -5.7891277333952884e-01	   8.1538947801914596e-01	  -9.7501569289785917e-01	   2.2213599123714178e-01	   9.7725436412257682e-01	  -2.1207052554133482e-01	  -1.0151569205261754e-01	  -9.9483393803542819e-01	   1.6499929999999999e-01	   8.4286755000000002e-01	   3.1710909999999998e-01	   2.0740575999999999e-01	   4.4222922999999997e-01	   3.1273319999999999e-01	
   7.6869322723023181e-01	   6.3961763766360535e-01	   1.8177855517925759e-01	   9.8333949217802785e-01	  -4.8922933878624725e-01	   8.7215517774692553e-01	   6.5813507039660701e-01	  -7.5289987987384688e-01	  -1.3371645822810616e-01	  -9.9101963088474243e-01	  -8.3414205169488631e-01	  -5.5154966919965209e-01	  -9.6423981759786226e-01	   2.6503127015286565e-01	   9.8747201377868588e-01	  -1.5779423945083321e-01	   2.4335928654441889e-02	   9.9970383743212965e-01	   1.0462524000000001e-02	   7.3212953999999997e-01	   1.6711422000000001e-01	   6.0415582999999995e-01	   3.1715731000000003e-01	   6.8973883000000002e-01	
  -1.0000000000000000e+00	   1.2246467991473532e-16	   1.0000000000000000e+00	  -2.4492935982947064e-16	  -1.0000000000000000e+00	   3.6739403974420594e-16	   0.0000000000000000e+00	   0.0000000000000000e+00	   0.0000000000000000e+00	   0.0000000000000000e+00	   0.0000000000000000e+00	   0.0000000000000000e+00	   0.0000000000000000e+00	   0.0000000000000000e+00	   0.0000000000000000e+00	   0.0000000000000000e+00	   0.0000000000000000e+00	   0.0000000000000000e+00	   1.9300676999999999e-02	   6.5476144999999997e-01	   6.1597751000000001e-01	   8.3774126000000004e-01	   7.6649668999999998e-01	   1.2934366000000000e-01	
   5.3743952450311905e-01	  -8.4330229307281113e-01	  -4.2231751500372261e-01	  -9.0644796680288298e-01	  -9.9137977340899808e-01	  -1.3101963545790987e-01	  -5.5610712212752189e-01	   8.3111062363505217e-01	  -3.8148973743809078e-01	  -9.2437307415859782e-01	   9.8040544214328329e-01	   1.9699027644996386e-01	  -7.0893116045883309e-01	   7.0527768271120861e-01	   4.0200354741959982e-01	   9.1563810966017445e-01	  -9.9975144199762689e-01	   2.2294712908347870e-02	   7.1068889999999996e-01	   6.1279459000000001e-02	   7.9750249999999995e-02	   5.3196684999999999e-01	   4.5338665000000000e-01	   4.7098298999999999e-01	
   1.2336963808358981e-01	   9.9236078741510336e-01	  -9.6955986479824818e-01	   2.4485438238349500e-01	  -3.6259813732465768e-01	  -9.3194559433943824e-01	   7.6967079642532332e-01	   6.3844096448301968e-01	   1.8478626973998311e-01	   9.8277873120839476e-01	  -4.8522160562684852e-01	   8.7439121303504819e-01	  -9.3170806903116443e-01	   3.6320803143958558e-01	  -5.3860977063392701e-01	   8.4255534831705181e-01	   7.2851778583092797e-01	   6.8502688686503554e-01	   6.9912587999999998e-01	   7.2579974999999997e-01	   6.6340076999999997e-01	   3.0489387000000001e-01	   3.6399502000000000e-01	   7.2439869999999995e-01	
  -9.1997944365882345e-01	  -3.9196660986007698e-01	   6.9272435350959649e-01	   7.2120244734381733e-01	  -3.5460488704252952e-01	  -9.3501624268541716e-01	   6.5269889524303981e-01	  -7.5761741806040561e-01	  -1.4796830429703070e-01	  -9.8899210356982192e-01	  -8.4585639273435553e-01	  -5.3341068874781994e-01	  -9.5621076184692266e-01	   2.9267896905675983e-01	  -8.9743029745050207e-01	   4.4115627754561471e-01	  -3.0350883559433861e-01	  -9.5282862400127799e-01	   9.2923156000000007e-02	   2.8058377999999998e-02	   9.1785897000000005e-01	   9.6600699000000001e-01	   7.4839339999999999e-01	   7.3308368999999998e-02	
   8.1556086895926083e-01	  -5.7867129617980484e-01	   3.3027906195516921e-01	  -9.4388333030836680e-01	  -2.7683551142484791e-01	  -9.6091732194509993e-01	   0.0000000000000000e+00	   0.0000000000000000e+00	   0.0000000000000000e+00	   0.0000000000000000e+00	   0.0000000000000000e+00	   0.0000000000000000e+00	   0.0000000000000000e+00	   0.0000000000000000e+00	   0.0000000000000000e+00	   0.0000000000000000e+00	   0.0000000000000000e+00	   0.0000000000000000e+00	   2.1128225000000000e-01	   8.1354989000000003e-02	   2.7375570999999999e-01	   2.8627531000000001e-01	   2.4856544000000000e-01	   1.4113587999999999e-01	
  -1.9150953739034648e-01	   9.8149075242130301e-01	  -9.2664819417707101e-01	  -3.7592967989821363e-01	   5.4643347137124798e-01	  -8.3750251424408728e-01	  -6.8818287933090708e-02	   9.9762921130345728e-01	  -9.9052808649191648e-01	  -1.3731026862788703e-01	   2.0515118205711846e-01	  -9.7873029609824946e-01	   9.6229178025867501e-01	   2.7201935527934396e-01	  -9.6598448675363957e-01	  -2.5860002194761617e-01	   9.9234320372576323e-01	   1.2351099554002624e-01	   6.8432252000000005e-01	   4.0239464000000003e-01	   3.0524896999999999e-02	   2.9940380999999999e-01	   8.7777680999999996e-01	   6.3427180000000005e-01	
  -5.2547766298433829e-01	  -8.5080739636213687e-01	  -4.4774645140903635e-01	   8.9416056458033055e-01	   9.9603918077624043e-01	  -8.8915411254719481e-02	   8.2315970528258786e-01	   5.6780991502357825e-01	   3.5518380080183365e-01	   9.3479648461467990e-01	  -2.3841371970421432e-01	   9.7116368252565966e-01	  -7.4768893529592673e-01	   6.6404913676326960e-01	   5.0544837235045423e-02	  -9.9872179280762807e-01	  -9.1564891362458767e-01	  -4.0197893847577676e-01	   6.1183394999999996e-01	   9.8822667000000003e-02	   9.7448000000000007e-02	   8.4906601999999998e-01	   6.3877778999999996e-02	   8.6474401000000001e-01	
   9.6342475087337243e-01	  -2.6797900926113638e-01	   8.5637450119083958e-01	  -5.1635522047340698e-01	   6.8668003005481393e-01	  -7.2695979003237843e-01	  -4.0723082409710321e-01	  -9.1332527387847651e-01	  -6.6832611181038837e-01	   7.4386840790048903e-01	   9.5155681065341735e-01	   3.0747298434024484e-01	  -1.0668041654481661e-01	  -9.9429336150143555e-01	  -6.3708825728082075e-01	  -7.7079086167058752e-01	  -1.4758425322659965e-01	   9.8904948723486374e-01	   2.9009073000000002e-01	   9.3451954999999998e-01	   4.8748292999999998e-01	   8.8628922999999998e-02	   2.2435531000000000e-01	   4.7303903000000003e-01	
   1.6650781670639089e-02	   9.9986136612520271e-01	  -9.9944550293951340e-01	   3.3296946616515374e-02	  -4.9933879392935143e-02	  -9.9875252574838169e-01	  -7.5818259377533093e-01	   6.5204229502089162e-01	   1.4968169100777701e-01	  -9.8873423698031837e-01	   5.3121048831742335e-01	   8.4723988167552922e-01	  -9.5519078275410474e-01	  -2.9599082509699637e-01	  -6.6457623270643329e-01	  -7.4722047009013659e-01	   6.3932756703556937e-01	  -7.6893449787896739e-01	   2.2582717999999999e-01	   8.9524625999999996e-01	   9.5081552000000003e-01	   8.7680970999999996e-01	   4.0448233000000000e-01	   1.7514840000000001e-01	
  -7.4201358545090745e-01	  -6.7038484395628217e-01	   1.0116832198742230e-01	   9.9486932339189615e-01	   5.9187704678702957e-01	  -8.0602826345399592e-01	   3.6224716521757150e-01	   9.3208207325955661e-01	  -7.3755398258366700e-01	   6.7528817757678239e-01	  -8.9660084398929829e-01	  -4.4283961719529796e-01	   8.7971754450056172e-02	  -9.9612296952684465e-01	   3.5606137735403859e-01	  -9.3446257044182612e-01	  -8.9364601311907321e-01	   4.4877255178585196e-01	   5.0396200000000002e-01	   1.5087758000000000e-02	   5.2151011999999997e-02	   5.0691620000000004e-01	   1.2552785000000000e-01	   8.4033471999999998e-01	
   8.4951396439954885e-01	  -5.2756613262240593e-01	   4.4334795141967598e-01	  -8.9634959361399646e-01	  -9.6253412761652890e-02	  -9.9535686089549558e-01	   7.4225073522925644e-01	  -6.7012226201763236e-01	   1.0187230789674345e-01	  -9.9479748335216001e-01	  -5.9102114435753839e-01	  -8.0665606482707719e-01	  -9.7924406576758216e-01	  -2.0268463103791351e-01	   2.7701855450626378e-01	  -9.6086456926002850e-01	   9.8408617481990635e-01	   1.7769186961795586e-01	   5.5095393000000004e-01	   6.6784257999999996e-01	   3.7648691000000001e-01	   9.1186986000000003e-01	   3.7153010000000000e-02	   9.2893168999999998e-01	
   4.1598492126574613e-02	   9.9913440810173049e-01	  -9.9653913090559065e-01	   8.3124969617619254e-02	  -1.2450754250817361e-01	  -9.9221866131340997e-01	  -9.2072003837310401e-01	   3.9022379596614792e-01	   6.9545077812354028e-01	  -7.1857373679210013e-01	  -3.5991089586791725e-01	   9.3298668106010663e-01	  -3.2696430414724691e-02	  -9.9946532878241212e-01	  -4.2818658667689030e-01	  -9.0369034906321422e-01	   3.5158545614280462e-01	  -9.3615579207141375e-01	   5.9096868999999996e-01	   3.3959106999999999e-01	   4.7529394000000003e-01	   6.2421705999999999e-01	   5.4857096000000005e-01	   5.1221454000000000e-01	
  -9.2729952923782677e-01	   3.7432016119266798e-01	   7.1976883384939017e-01	  -6.9421381851637687e-01	  -4.0758307233937163e-01	   9.1316813300859256e-01	  -3.3190731723987615e-01	   9.4331200181203467e-01	  -7.7967506552525645e-01	  -6.2618431168321931e-01	   8.4946703587450112e-01	  -5.2764169183508336e-01	   2.1578641560362571e-01	   9.7644058848500315e-01	  -4.5323201546132202e-02	  -9.9897237569494812e-01	   6.6087819960038630e-01	   7.5049317471443533e-01	   6.6383354999999999e-01	   8.5298914000000003e-01	   1.7946259000000001e-01	   1.7178346999999999e-01	   8.6398741000000001e-01	   6.5807101000000001e-01	
  -2.6165925596843076e-01	  -9.6516031505965227e-01	  -8.6306886753209455e-01	   5.0508625985752964e-01	   7.1331917142435808e-01	   7.0083932515125558e-01	   0.0000000000000000e+00	   0.0000000000000000e+00	   0.0000000000000000e+00	   0.0000000000000000e+00	   0.0000000000000000e+00	   0.0000000000000000e+00	   0.0000000000000000e+00	   0.0000000000000000e+00	   0.0000000000000000e+00	   0.0000000000000000e+00	   0.0000000000000000e+00	   0.0000000000000000e+00	   4.5499264000000000e-01	   9.2199936000000005e-01	   8.3559209000000001e-01	   9.5727669999999998e-01	   7.9517086999999997e-01	   6.9727063000000006e-02	
   9.9896741762909758e-01	  -4.5432350978703566e-02	   9.9587180296909583e-01	  -9.0770876668028605e-02	   9.9071954897424441e-01	  -1.3592194554327788e-01	   2.8560107212223640e-01	  -9.5834859399001004e-01	  -8.3686405520525831e-01	  -5.4741077182076936e-01	  -7.6361961489660535e-01	   6.4566638734346404e-01	   4.0068289378917910e-01	   9.1621679673793877e-01	   2.4176613580795178e-01	  -9.7033454827522814e-01	   3.2884619517215335e-01	   9.4438349197812543e-01	   2.1536032999999999e-01	   2.0308403999999999e-01	   1.0015706000000001e-01	   5.1484876000000002e-01	   6.2204050000000000e-01	   7.9337672999999997e-02	
  -3.8823908547328673e-01	   9.2155868641712990e-01	  -6.9854082502173198e-01	  -7.1557020324909981e-01	   9.3064078761767155e-01	  -3.6593404381440087e-01	  -8.3030890380834632e-01	   5.5730344001861531e-01	   3.7882575148683539e-01	  -9.2546801674095380e-01	   2.0122411490553127e-01	   9.7954522896111618e-01	  -7.1298210002086893e-01	  -7.0118223383784595e-01	  -1.9122945664442306e-01	  -9.8154536059801067e-01	   8.3594619559418237e-01	  -5.4881140483012281e-01	   7.7087192000000004e-01	   3.5364733999999998e-01	   7.2887968999999997e-01	   5.4184500999999996e-01	   7.1009526999999995e-01	   1.4152586000000000e-01	
  -8.6908894630552125e-01	  -4.9465584339979135e-01	   5.1063119318088224e-01	   8.5979985144838711e-01	  -1.8478904959086769e-02	  -9.9982925045805349e-01	   6.2140529850707373e-02	   9.9806740982253972e-01	  -9.9227710909974665e-01	   1.2404087534619143e-01	  -1.8546178048707979e-01	  -9.8265147838822398e-01	   9.6922772248670119e-01	  -2.4616584239744174e-01	   4.3969422876479508e-01	  -8.9814752974716361e-01	  -5.4770552398643157e-01	   8.3667117734194019e-01	   5.5639775000000002e-01	   2.6303924999999999e-02	   9.2759762000000001e-01	   6.2920050000000005e-01	   9.1344391000000003e-01	   8.4908245000000004e-01	
   5.5036746343995024e-01	  -8.3492254442353819e-01	  -3.9419131037335009e-01	  -9.1902840588642376e-01	  -9.8426760664045188e-01	  -1.7668412073040599e-01	   6.6145626942415547e-01	  -7.4998373558329856e-01	  -1.2495120727895824e-01	  -9.9216288773544181e-01	  -8.2675578827772356e-01	  -5.6256098918186626e-01	  -9.6877439159906165e-01	   2.4794390127984192e-01	  -2.6213431961005296e-01	  -9.6503139766671564e-01	   9.9022233796890247e-01	  -1.3949810531831883e-01	   2.2983102999999999e-01	   1.8224955000000001e-01	   7.4102641999999996e-01	   5.9038179000000002e-01	   4.2024221000000000e-01	   2.7278266000000001e-01	
   7.0811033598833018e-01	   7.0610180007311563e-01	   2.8404958670118254e-03	   9.9999596578347727e-01	  -7.0408756702280362e-01	   7.1011315856271029e-01	  -5.7263306765249777e-01	  -8.1981178927293419e-01	  -3.4418273966177970e-01	   9.3890267957808682e-01	   9.6681390374362974e-01	  -2.5548165399496603e-01	  -7.6307648343782319e-01	  -6.4630819306594400e-01	   1.7338318619334228e-01	  -9.8485444140007050e-01	  -9.8435797406021908e-01	   1.7617996169843247e-01	   1.1214706000000001e-01	   6.9831628999999995e-01	   8.2169175000000005e-01	   8.4906373000000002e-01	   4.9740588000000002e-01	   4.3108801000000002e-01	
  -9.9483019184471644e-01	  -1.0155239728438120e-01	   9.7937422121159046e-01	   2.0205478174542360e-01	  -9.5379189690667587e-01	  -3.0046799728950335e-01	  -6.1058833096093201e-01	   7.9194816124184753e-01	  -2.5436378018868666e-01	  -9.6710861196047748e-01	   9.2121144296557922e-01	   3.8906230522793572e-01	  -8.7059813465624292e-01	   4.9199480478260160e-01	   6.8785594072707612e-01	  -7.2584723241634608e-01	   5.2700747212894195e-01	   8.4986064994224941e-01	   3.7068087999999999e-01	   6.9184524999999997e-01	   1.1459241000000001e-01	   2.1402615000000000e-01	   8.9214740000000003e-01	   1.6750271000000000e-01	
   7.8015643198137097e-01	  -6.2558448001696498e-01	   2.1728811672380707e-01	  -9.7610751166591336e-01	  -4.4111898827097540e-01	  -8.9744862704602268e-01	   9.6950539467992913e-01	   2.4506996896093738e-01	   8.7988142062697039e-01	   4.7519331396334319e-01	   7.3659417327304610e-01	   6.7633499384565166e-01	   5.4838262872907118e-01	   8.3622753632500868e-01	   9.0967783860038631e-01	  -4.1531461563413524e-01	   6.0305390039998230e-01	  -7.9770044077483637e-01	   9.8703786999999998e-01	   4.3437271999999999e-01	   3.2516414000000000e-02	   7.7027080000000003e-01	   2.0011614000000000e-01	   3.8183534000000002e-01	
   4.1259941700046432e-01	   9.1091257598678310e-01	  -6.5952344218175396e-01	   7.5168399558107568e-01	  -9.5683739248512645e-01	  -2.9062381929612052e-01	  -3.4920226277894967e-01	  -9.3704737322616805e-01	  -7.5611555934012276e-01	   6.5443812612329766e-01	   8.7727679126683378e-01	   4.7998482424402561e-01	   1.4342147815245343e-01	  -9.8966169957443806e-01	   7.0948758652925958e-01	  -7.0471793262332016e-01	  -9.9764888660493489e-01	   6.8532467166547012e-02	   4.3290904999999998e-02	   9.4396088000000000e-01	   2.3491607000000000e-01	   5.2444398000000003e-01	   1.5855799000000001e-01	   7.6715111000000002e-01	
  -9.9986185469110500e-01	  -1.6621417919766058e-02	   9.9944745693267301e-01	   3.3238243497706516e-02	  -9.9875692121891646e-01	  -4.9845885660815860e-02	  -9.2511575223378062e-01	   3.7968519192737316e-01	   7.1167831006214766e-01	  -7.0250550388383837e-01	  -3.9165387808943752e-01	   9.2011262342036371e-01	   1.2972034025828688e-02	  -9.9991585962681517e-01	   9.3129885808539614e-01	  -3.6425600465721508e-01	   9.1867704557945329e-01	   3.9500947574128792e-01	   1.2181277000000000e-01	   1.9757331000000000e-02	   7.9871990999999998e-01	   7.6268398000000004e-01	   8.4783151000000001e-02	   9.3325725999999998e-01	
   5.6490996862091036e-01	  -8.2515254792839499e-01	  -3.6175345470544423e-01	  -9.3227379991538761e-01	  -9.7362623411322713e-01	  -2.2814897818420188e-01	   3.7630098387404803e-02	   9.9929173702945939e-01	  -9.9716795139070846e-01	   7.5206892764278402e-02	  -1.1267715462660330e-01	  -9.9363165148119781e-01	   9.8868784656148467e-01	  -1.4998780637643239e-01	   8.4582574063288063e-01	   5.3345929224528366e-01	  -8.0331050523441938e-01	  -5.9556043537161019e-01	   9.8265237000000005e-02	   4.4245842000000002e-01	   7.7299152000000004e-01	   6.9397357000000004e-01	   7.6429570999999996e-01	   5.0760293999999995e-01	
   7.7226552198096976e-01	   6.3529990048752594e-01	   1.9278807288107916e-01	   9.8124041852891475e-01	  -4.7449835851054584e-01	   8.8025638752058910e-01	   9.6503193702693157e-01	  -2.6213233398046926e-01	   8.6257327896390346e-01	  -5.0593214803712561e-01	   6.9978958742548236e-01	  -7.1434902766845931e-01	   4.8806532316508006e-01	  -8.7280710373126891e-01	   9.1179353826876453e-01	   4.1064892983097734e-01	   5.7872824688405444e-01	   8.1552045729001121e-01	   7.1925349000000005e-01	   8.1300481000000002e-01	   2.1964269000000000e-01	   7.0672789999999996e-01	   5.1488555000000003e-01	   1.5313890999999999e-01	
  -9.0694482304821655e-01	   4.2124943673082715e-01	   6.4509782410792171e-01	  -7.6409999171000187e-01	  -2.6319144082048102e-01	   9.6474362681431547e-01	  -9.9924425760761137e-01	  -3.8870472575127012e-02	   9.9697817272357259e-01	   7.7682193022379623e-02	  -9.9320517050070711e-01	  -1.1637649801683075e-01	   9.8793095377446749e-01	   1.5489490170522380e-01	   9.2263357107561472e-01	  -3.8567770680227109e-01	   8.8988524172014827e-01	  -4.5618445454516893e-01	   8.8811552999999999e-01	   9.2103995000000005e-01	   4.0514995999999998e-01	   7.1120386999999996e-01	   7.2868982000000004e-01	   2.5699664999999999e-01	
  -3.8899510050783093e-01	  -9.2123982316273245e-01	  -6.9736562356180509e-01	   7.1671555520600694e-01	   9.3153872216409195e-01	   3.6364214429695940e-01	  -6.6010458636375891e-01	   7.5117370498542524e-01	  -1.2852387012306143e-01	  -9.9170641563347284e-01	   8.2978297861466510e-01	   5.5808620158661360e-01	  -9.6696322961718084e-01	   2.5491589312616653e-01	   9.4878858106351815e-01	   3.1591174154101309e-01	  -4.3523368122701717e-01	   9.0031752328030312e-01	   7.8680298999999998e-01	   8.4518658000000002e-01	   7.7873101000000000e-01	   2.5016511000000002e-01	   5.1224400999999997e-01	   4.6802475999999998e-01	
   9.7723285652347014e-01	  -2.1216961170483095e-01	   9.0996811173804248e-01	  -4.1467823142757487e-01	   8.0126861783460157e-01	  -5.9830477356730760e-01	   9.9089729777843827e-01	   1.3462000317705053e-01	   9.6375490948922182e-01	   2.6678919475012824e-01	   9.1906697328870823e-01	   3.9410138113172466e-01	   8.5764705112915629e-01	   5.1423879247822446e-01	   9.9689967063118878e-01	  -7.8683204659109773e-02	   9.3977512302763289e-01	  -3.4179338515892521e-01	   8.2142579000000004e-01	   5.6989555999999997e-01	   6.4044789000000002e-01	   4.2489619000000001e-01	   4.9166327999999998e-01	   1.1958305000000000e-01	
  -2.0002569377603280e-01	   9.7979065204227012e-01	  -9.1997944365883355e-01	  -3.9196660986005327e-01	   5.6806474673112639e-01	  -8.2298386589367678e-01	  -6.9510779707012949e-01	  -7.1890552261914886e-01	  -3.3650300904623225e-02	   9.9943366825869351e-01	   7.4188897013524846e-01	  -6.7052274830288972e-01	  -9.9773531449805664e-01	  -6.7262487342232849e-02	   8.4341633012188721e-01	  -5.3726054580969163e-01	  -5.6533749140572254e-01	  -8.2485969765232481e-01	   8.2810125000000001e-01	   8.8958610000000005e-01	   2.3387036000000000e-01	   6.0726539000000002e-01	   5.9226716999999995e-01	   9.1504801999999996e-02	
  -9.7722625908859828e-01	  -2.1219999657800118e-01	   9.0994232290459254e-01	   4.1473481766906689e-01	  -8.0121280530828987e-01	  -5.9837951219106789e-01	  -9.1165312264122367e-01	   4.1096056255863050e-01	   6.6222283204298793e-01	  -7.4930696027793886e-01	  -2.9578190279138528e-01	   9.5525549774974206e-01	  -1.2292184144192934e-01	  -9.9241635460955857e-01	   9.7809720059375693e-01	  -2.0814866367732462e-01	   8.0368554065648723e-01	   5.9505424268690810e-01	   8.2067926000000002e-01	   5.2906036000000001e-01	   5.3494701999999998e-02	   7.1422262999999997e-01	   7.9060721000000000e-01	   9.6224510999999999e-02	
   4.5095128381982519e-01	  -8.9254856429286322e-01	  -5.9328587924250298e-01	  -8.0499184187881689e-01	  -9.8603734165298595e-01	   1.6652435517338776e-01	   3.9205110064673143e-01	   9.1994344091454150e-01	  -6.9259186896337288e-01	   7.2132967708657469e-01	  -9.3511390969886576e-01	  -3.5434725325265537e-01	  -4.0633006091644129e-02	  -9.9917413838427405e-01	   9.9789014457852954e-01	   6.4925028710363208e-02	  -6.4429825025929166e-01	  -7.6477432273371682e-01	   1.7349624000000000e-01	   6.4909486000000005e-01	   7.9113212000000002e-02	   6.6481904000000003e-01	   6.6355954999999994e-02	   2.9305397999999999e-01	
   7.2292248449981977e-01	   6.9092914354845958e-01	   4.5233837190784228e-02	   9.9897642613477000e-01	  -6.5752136856897547e-01	   7.5343589632773766e-01	   8.7637541972963673e-01	  -4.8162861594147721e-01	   5.3606775261259410e-01	  -8.4417496089903232e-01	   6.3217783669135386e-02	  -9.9799975542480091e-01	  -4.2526272921776537e-01	  -9.0506994820193731e-01	   9.6632274290639619e-01	   2.5733316253809763e-01	   3.0078024866464642e-01	   9.5369347382334202e-01	   8.6126411999999997e-01	   6.0531637000000005e-01	   8.1055871000000002e-01	   5.9235501000000002e-01	   5.1651091999999998e-01	   9.8904495999999997e-01	
  -9.9782888428413075e-01	  -6.5859833649097255e-02	   9.9132496462342645e-01	   1.3143368865843433e-01	  -9.8051648254226731e-01	  -1.9643682817368943e-01	  -9.9523940114517173e-01	  -9.7460424830799627e-02	   9.8100293118360016e-01	   1.9399290968791807e-01	  -9.5742613836047663e-01	  -2.8867834969762718e-01	   9.2473350198163051e-01	   3.8061522606536613e-01	   9.8665989387356634e-01	   1.6279512837122237e-01	   9.9949734860702000e-01	  -3.1702525570326004e-02	   6.0647854000000001e-01	   2.6190202000000001e-01	   4.6687824000000000e-01	   4.3075291999999998e-01	   2.2676408999999999e-03	   4.7345081000000000e-01	
   7.6431572054579078e-01	  -6.4484221273623887e-01	   1.6835704134686261e-01	  -9.8572608093168090e-01	  -5.0695985381382191e-01	  -8.6196966687991305e-01	  -7.1557435750738163e-01	   6.9853656946354492e-01	   2.4093322244204029e-02	  -9.9970971377857332e-01	   6.8109323033715241e-01	   7.3219670279843696e-01	  -9.9883902364647392e-01	  -4.8172656569456282e-02	  -9.6478863532291931e-02	   9.9533503348948660e-01	  -9.9737059779239945e-01	  -7.2469929344741793e-02	   2.7647453000000000e-01	   8.0497854999999996e-01	   3.0320741000000001e-01	   2.9287809999999997e-01	   4.4433749000000000e-01	   5.2317800999999997e-01	
   5.6806474673118845e-01	   8.2298386589363381e-01	  -3.5460488704246135e-01	   9.3501624268544303e-01	  -9.7094181742602359e-01	   2.3931566428767323e-01	   8.5243892622349959e-01	   5.2282681363806038e-01	   4.5330424588214580e-01	   8.9135585523696381e-01	  -7.9610556998840426e-02	   9.9682604260439267e-01	  -5.8903052133043821e-01	   8.0811078754165389e-01	   5.3962470448257166e-02	   9.9854296441521284e-01	   9.1451853500965985e-01	   4.0454400146805469e-01	   3.0860159999999998e-01	   2.4184407999999999e-01	   3.4614645999999999e-01	   2.9824657999999998e-01	   5.2289269000000005e-01	   3.2277284000000001e-01	
  -9.9918001329857897e-01	   4.0488282559914650e-02	   9.9672139795069703e-01	  -8.0910165413304300e-02	  -9.9262818602013247e-01	   1.2119935774739568e-01	   1.3242146500699087e-01	  -9.9119350058674327e-01	  -9.6492911121080460e-01	  -2.6251059090620843e-01	  -3.8797611807584764e-01	   9.2166942653144135e-01	   8.6217637932414648e-01	   5.0660822233310165e-01	  -9.2181158643395475e-02	   9.9574225278992812e-01	  -1.7244460369000944e-01	  -9.8501921740552634e-01	   7.6785004999999995e-01	   1.8282825000000000e-01	   9.5235906000000004e-01	   2.8677187999999998e-01	   1.0750802000000000e-01	   6.9395834999999995e-01	
   5.1761328772264692e-01	  -8.5561468218641057e-01	  -4.6415296874590467e-01	  -8.8575505734055127e-01	  -9.9811677604023630e-01	  -6.1342492507598247e-02	  -8.0467564330537644e-01	   5.9371466974555931e-01	   2.9500578185784282e-01	  -9.5549546763469417e-01	   3.2990770871484598e-01	   9.4401319044307863e-01	  -8.2594317734088574e-01	  -5.6375337498239619e-01	   9.1480183182124628e-02	   9.9580689698603964e-01	  -9.2450179374538832e-01	   3.8117769263371060e-01	   4.1472973000000002e-01	   7.3647012999999995e-01	   6.2006707999999999e-01	   9.0851057999999996e-01	   9.7236020999999995e-01	   8.7890208999999997e-01	
   6.0149081500194213e-01	   7.9887971526901302e-01	  -2.7641759893659879e-01	   9.6103762205135634e-01	  -9.3401610873245167e-01	   3.5723088980138462e-01	   6.9832311928247648e-01	   7.1578266329633333e-01	  -2.4689642151184313e-02	   9.9969516432282823e-01	  -7.3280581512444276e-01	   6.8043782766671712e-01	  -9.9878084314089288e-01	  -4.9364231734800049e-02	  -1.5178930809675553e-01	   9.8841287220852614e-01	   9.9185919240058584e-01	   1.2733947718778152e-01	   7.9939698000000003e-01	   7.3654421000000003e-01	   1.9862667000000001e-01	   6.7012808999999995e-01	   3.1366692000000002e-01	   2.8261652999999998e-01	
  -9.9821692686750052e-01	   5.9690593188568175e-02	   9.9287406616959373e-01	  -1.1916832099118137e-01	  -9.8399047132900197e-01	   1.7822107713098520e-01	   2.9111683223831297e-01	  -9.5668750905796296e-01	  -8.3050197997505992e-01	  -5.5701567415783304e-01	  -7.7466304339428549e-01	   6.3237423192212960e-01	   3.7946707748498959e-01	   9.2520524053044628e-01	  -2.3349250472456654e-01	   9.7235860166784571e-01	  -3.4770299454809395e-01	  -9.3760472886088209e-01	   2.3413262000000001e-01	   2.6721027000000003e-01	   7.6888584000000004e-01	   7.7263203999999996e-01	   6.9289486000000000e-01	   4.4874707000000003e-01	
   8.0764186542940986e-01	  -5.8967331396774525e-01	   3.0457076558859375e-01	  -9.5248971057370369e-01	  -3.1567366287893989e-01	  -9.4886781933238384e-01	   0.0000000000000000e+00	   0.0000000000000000e+00	   0.0000000000000000e+00	   0.0000000000000000e+00	   0.0000000000000000e+00	   0.0000000000000000e+00	   0.0000000000000000e+00	   0.0000000000000000e+00	   0.0000000000000000e+00	   0.0000000000000000e+00	   0.0000000000000000e+00	   0.0000000000000000e+00	   4.2911841000000001e-01	   9.6626665000000000e-01	   3.4347333000000002e-01	   1.6947193999999999e-01	   7.7074662999999999e-01	   3.6023817000000002e-01	
  -8.1358674667791564e-02	   9.9668488804451150e-01	  -9.8676153211260087e-01	  -1.6217792310543536e-01	   2.4192189559947266e-01	  -9.7029572627604510e-01	   2.5379235214445595e-01	   9.6725872546748548e-01	  -8.7117888398596888e-01	   4.9096573413728345e-01	  -6.9598942835521815e-01	  -7.1805202848942407e-01	   5.1790529580607658e-01	  -8.5543796068214106e-01	  -9.8470036391393201e-01	   1.7425611411875847e-01	   9.4340394509134329e-01	   3.3164589004854222e-01	   2.9871193000000001e-01	   3.8529908000000002e-01	   8.0677697999999998e-01	   1.4093933000000000e-01	   5.2821147000000002e-01	   7.3821656999999996e-01	
  -7.4467524743515934e-01	  -6.6742698166719649e-01	   1.0908244828523155e-01	   9.9403270543584221e-01	   5.8221324909988448e-01	  -8.1303612009095627e-01	   8.4951798931400724e-01	  -5.2755965144416261e-01	   4.4336162833622728e-01	  -8.9634282867608706e-01	  -9.6230631227655294e-02	  -9.9535906366171545e-01	  -6.0686093303809818e-01	  -7.9480803213865991e-01	  -9.8472256470580322e-01	  -1.7413061350384440e-01	  -2.8050747308025165e-01	  -9.5985184145582170e-01	   2.9750174000000001e-01	   5.5987847999999996e-01	   3.0099556999999999e-01	   1.4465523999999999e-01	   4.8145234999999997e-01	   1.7444746000000000e-01	
   9.9849737118800674e-01	  -5.4799632577599386e-02	   9.9399400053872022e-01	  -1.0943457814160329e-01	   9.8650342184111783e-01	  -1.6374064460531937e-01	  -6.4718992984344992e-01	  -7.6232879698279166e-01	  -1.6229038941846072e-01	   9.8674304127386903e-01	   8.5725534132744940e-01	  -5.1489152232830382e-01	  -9.4732365900480875e-01	  -3.2027782484858491e-01	  -6.8799278158601562e-01	  -7.2571752940488976e-01	  -6.0444210563005496e-01	   7.9664907013157649e-01	   2.1782667000000000e-01	   8.5826075999999996e-01	   7.8268795000000002e-01	   5.5574670000000000e-02	   7.9769150000000000e-01	   8.3431641000000001e-01	
  -7.4301184839056722e-01	   6.6927826287070813e-01	   1.0413321369753466e-01	  -9.9456335836638565e-01	   5.8826742521405695e-01	   8.0866645561196859e-01	  -7.6099439980411820e-01	   6.4875844770358859e-01	   1.5822495306646023e-01	  -9.8740309105608759e-01	   5.2017779341842685e-01	   8.5405799758232837e-01	  -9.4992972845423296e-01	  -3.1246361548005447e-01	   1.3122792871157332e-01	  -9.9135222334247586e-01	   9.9962778251508311e-01	  -2.7281796567998850e-02	   5.2828772999999998e-05	   2.6204238000000002e-01	   2.5409383000000002e-01	   9.0209514000000002e-01	   3.1403300000000001e-01	   4.6931322999999997e-03	
  -6.9823826688349688e-02	  -9.9755933819828246e-01	  -9.9024926645319056e-01	   1.3930682068340336e-01	   2.0810981300653567e-01	   9.7810546759047656e-01	   3.1959157707746166e-01	   9.4755539355815022e-01	  -7.9572244772228173e-01	   6.0566144519100817e-01	  -8.2820396104446581e-01	  -5.6042680067093231e-01	   2.6634842761827882e-01	  -9.6387681531680725e-01	   9.2292762441516851e-01	  -3.8497350570055289e-01	  -9.6755783819299446e-01	  -2.5264961854572277e-01	   2.7460917000000001e-01	   1.4870910000000001e-01	   2.9471975000000000e-01	   4.2892738000000002e-01	   4.2410953000000001e-01	   7.5441102000000004e-01	
   9.4171326750430784e-01	  -3.3641658967173427e-01	   7.7364775638728001e-01	  -6.3361593180484965e-01	   5.1539544562537798e-01	  -8.5695246929372815e-01	   9.2051152479560749e-01	  -3.9071541141662902e-01	   6.9468293456306862e-01	  -7.1931607824852861e-01	   3.5841576989266583e-01	  -9.3356206858047075e-01	  -3.4831240853686697e-02	  -9.9939320823217148e-01	   7.3541476954967322e-01	  -6.7761723467471002e-01	   9.9830106203161506e-01	   5.8266538824177337e-02	   4.8215411000000002e-01	   1.3130475000000000e-01	   2.3355746999999999e-01	   1.2815959000000000e-02	   2.0428346999999999e-02	   3.5746071000000001e-01	
  -3.6785126480565228e-02	   9.9932319820456927e-01	  -9.9729370893961766e-01	  -7.3520460481836081e-02	   1.1015627692379670e-01	  -9.9391427932910181e-01	  -7.0098981433095064e-01	  -7.1317128391730644e-01	  -1.7226560408518679e-02	   9.9985161179871673e-01	   7.2514110109560748e-01	  -6.8860030750926182e-01	  -9.9940649123298331e-01	  -3.4448008380410719e-02	   7.3847460729365366e-01	  -6.7428128728482739e-01	  -6.8690260933014946e-01	  -7.2674947904723819e-01	   5.7454265999999998e-01	   4.6714443000000000e-01	   4.3695643000000001e-01	   8.0304882000000000e-01	   6.4094145999999996e-01	   8.5049602999999996e-01	
  -8.2200207544798909e-01	  -5.6948449316833760e-01	   3.5137482408160325e-01	   9.3623487063963939e-01	   2.4434040613748967e-01	  -9.6968952037678879e-01	  -9.9764540807378921e-01	   6.8583086466581941e-02	   9.9059272050143465e-01	  -1.3684320256982624e-01	  -9.7887514968536848e-01	   2.0445889887321458e-01	   9.6254787582086698e-01	  -2.7111176063154618e-01	   8.5912360023415246e-01	   5.1176815016246191e-01	   7.8100959176146911e-01	   6.2451902899478040e-01	   2.0267938999999999e-01	   7.5787746000000000e-01	   8.9239966999999998e-01	   8.5751299999999997e-01	   3.8246365999999998e-01	   3.6464211000000002e-01	
   8.8361558010261387e-01	  -4.6821309956036172e-01	   5.6155298680015764e-01	  -8.2744077915934378e-01	   1.0877835627693967e-01	  -9.9406602859452309e-01	   4.0613575099274585e-01	   9.1381275530907224e-01	  -6.7010750353111670e-01	   7.4226405928840067e-01	  -9.5044497937771411e-01	  -3.1089281300103516e-01	  -1.0191186742258886e-01	  -9.9479343146124599e-01	   7.8672697979492112e-01	   6.1730110907300484e-01	  -6.8991225367189019e-02	  -9.9761726670218265e-01	   8.8104267999999997e-01	   2.4045532000000000e-01	   9.3680103000000003e-01	   1.5520083000000001e-01	   3.3954646999999999e-01	   9.0058081000000001e-01	
   1.4125200327958973e-01	   9.8997367215977150e-01	  -9.6009574313900559e-01	   2.7967152877323909e-01	  -4.1248289739677146e-01	  -9.1096534476080071e-01	   9.3140443048975419e-01	   3.6398597069675181e-01	   7.3502842627188669e-01	   6.7803629148613698e-01	   4.3781303504133950e-01	   8.9906604114930888e-01	   8.0533574855452553e-02	   9.9675189657256291e-01	  -2.2877378635513923e-01	   9.7347961184440479e-01	   4.9189926969546560e-01	   8.7065211679124033e-01	   2.9061355999999999e-01	   1.0857216000000000e-01	   8.1842287000000002e-01	   6.5954285999999995e-01	   1.9406074000000001e-01	   7.8209318000000000e-02	
  -9.7217242575797047e-01	   2.3426646067216583e-01	   8.9023845080827313e-01	  -4.5549478669078730e-01	  -7.5875812269262266e-01	   6.5137248272241821e-01	   2.5379235214445595e-01	  -9.6725872546748548e-01	  -8.7117888398596899e-01	  -4.9096573413728339e-01	  -6.9598942835521893e-01	   7.1805202848942340e-01	   5.1790529580607669e-01	   8.5543796068214095e-01	  -2.0133648453558840e-02	   9.9979729755583380e-01	  -4.7332620479263471e-01	  -8.8088722539074249e-01	   7.8175709000000004e-01	   6.6663192999999998e-01	   2.9098837000000000e-01	   4.6015492000000002e-01	   5.7753321000000002e-01	   5.9121053999999995e-01	
  -3.7417357837857412e-01	  -9.2735868640099184e-01	  -7.1998826648674608e-01	   6.9398623626222611e-01	   9.1297475050243893e-01	   4.0801605966555954e-01	   0.0000000000000000e+00	   0.0000000000000000e+00	   0.0000000000000000e+00	   0.0000000000000000e+00	   0.0000000000000000e+00	   0.0000000000000000e+00	   0.0000000000000000e+00	   0.0000000000000000e+00	   0.0000000000000000e+00	   0.0000000000000000e+00	   0.0000000000000000e+00	   0.0000000000000000e+00	   8.6923024000000004e-01	   9.2183324000000000e-01	   7.8424636000000003e-01	   4.4645807999999998e-01	   4.4735416000000000e-01	   4.7508096999999999e-01	
   9.9834512709925083e-01	   5.7506583946367665e-02	   9.9338598560563873e-01	   1.1482283571796033e-01	   9.8513898901690111e-01	   1.7175905309111936e-01	  -4.3080765795205234e-01	   9.0244377212647853e-01	  -6.2880952369973497e-01	  -7.7755937580644763e-01	   9.7259957435810906e-01	  -2.3248670490680767e-01	  -2.0919716580902498e-01	   9.7787348149823106e-01	  -4.8199118457214052e-01	   8.7617606563677874e-01	  -3.7819826749480429e-01	  -9.2572461913029436e-01	   5.8471562999999997e-02	   6.2220288999999995e-01	   7.9958209999999996e-01	   7.1316312999999998e-01	   1.3083591000000000e-01	   4.0891724000000002e-01	
  -7.9399039864778409e-01	   6.0793029769467233e-01	   2.6084150628973429e-01	  -9.6538163883331785e-01	   3.7977909552203531e-01	   9.2507720683436190e-01	   6.7746193375286756e-01	   7.3555783478651449e-01	  -8.2090656631650563e-02	   9.9662486628308866e-01	  -7.8868852372230891e-01	   6.1479298349015421e-01	  -9.8652224818756884e-01	  -1.6362717937721938e-01	  -9.8506616432255234e-01	  -1.7217622340745639e-01	  -9.0730377375723731e-02	   9.9587549353383464e-01	   6.0308786999999997e-01	   5.8031798000000001e-01	   6.4032250000000002e-01	   5.0770152999999996e-01	   3.3413441999999999e-01	   4.0280227000000002e-01	
  -4.7581915823842108e-02	  -9.9886733918300319e-01	  -9.9547192257306560e-01	   9.5056043304381610e-02	   1.4231483827358188e-01	   9.8982144188089005e-01	   9.1540114820828788e-01	  -4.0254283978099542e-01	   6.7591852428210375e-01	  -7.3697635547709617e-01	   3.2207203823789232e-01	  -9.4671516423119029e-01	  -8.6268297064606342e-02	  -9.9627194124976381e-01	  -4.4564343565830805e-01	  -8.9521054967792879e-01	   3.5853035490011770e-01	  -9.3351806871382814e-01	   4.8937023000000002e-01	   8.3442022999999999e-01	   5.1059741999999997e-01	   5.0578279999999998e-01	   2.8213843999999999e-01	   9.8950322999999996e-01	
   8.3457325372135027e-01	   5.5089698145203037e-01	   3.9302503165408270e-01	   9.1952777255138263e-01	  -1.7855689479838141e-01	   9.8392958859867596e-01	  -8.2355304135523633e-01	  -5.6723926880509645e-01	   3.5647922385091912e-01	   9.3430325000111514e-01	   2.3639394339047923e-01	  -9.7165729736790374e-01	  -7.4584512592529262e-01	   6.6611939480357751e-01	  -3.7482494039016856e-01	  -9.2709560675342784e-01	  -9.9980574228173780e-01	   1.9709837656950297e-02	   9.2398216000000000e-01	   1.5579944000000001e-01	   4.4122167000000001e-01	   7.7711441999999997e-01	   2.6503160999999997e-01	   7.9971183999999995e-01	
  -9.6009574313900559e-01	   2.7967152877323909e-01	   8.4356767198727856e-01	  -5.3702288850472946e-01	  -6.5971571871032908e-01	   7.5151524966996774e-01	  -7.8948068662733650e-01	   6.1377540309337031e-01	   2.4655950911514157e-01	  -9.6912765333824857e-01	   4.0017274552589455e-01	   9.1643972728066936e-01	  -8.7841681692980089e-01	  -4.7789527695397527e-01	   5.8632154121483071e-01	  -8.1007842231938598e-01	   9.2963255182789895e-01	   3.6848788118735837e-01	   6.9464663999999998e-01	   2.9618580000000000e-01	   3.0666164000000001e-01	   7.8768561000000004e-01	   7.5464668000000001e-01	   9.6141726999999999e-01	
  -1.5901491042266105e-01	  -9.8727618135113193e-01	  -9.4942851652654614e-01	   3.1398326707995422e-01	   4.6096149143903931e-01	   8.8742013917326468e-01	   8.5075043688183460e-01	   5.2556987560681923e-01	   4.4755261170926508e-01	   8.9425760256886599e-01	  -8.9239277003307957e-02	   9.9601021653391031e-01	  -5.9939331950443164e-01	   8.0045465114112391e-01	   3.8360061530948525e-01	  -9.2349908929797231e-01	  -6.5416462433509459e-01	  -7.5635219591703740e-01	   7.1584581999999997e-01	   1.7961534000000001e-01	   2.1527963000000000e-01	   7.1880263000000000e-02	   4.2734028000000002e-01	   7.7789379999999997e-01	
   8.1533692251936329e-01	  -5.7898678981186935e-01	   3.2954859444669238e-01	  -9.4413861476915006e-01	  -2.7795064888586751e-01	  -9.6059535538327756e-01	  -4.1155865262315505e-01	  -9.1138327582363132e-01	  -6.6123895090202633e-01	   7.5017534604250202e-01	   9.5583587601352815e-01	   2.9390096652690884e-01	  -1.2552609961997516e-01	  -9.9209031761941713e-01	  -8.6323784242332868e-01	  -5.0479741224407670e-01	   1.9211991189137084e-01	   9.8137145844723439e-01	   4.7729588000000001e-01	   2.5766781000000000e-01	   2.0087194999999999e-01	   8.5330625000000004e-01	   4.6781430000000002e-01	   7.0114999000000000e-01	
   3.0494910619929472e-01	   9.5236864849083058e-01	  -8.1401208525650259e-01	   5.8084793625901809e-01	  -8.0141362186808363e-01	  -5.9811053049104579e-01	  -5.7263306765249766e-01	   8.1981178927293430e-01	  -3.4418273966178015e-01	  -9.3890267957808671e-01	   9.6681390374362985e-01	   2.5548165399496531e-01	  -7.6307648343782253e-01	   6.4630819306594478e-01	  -9.5538698792750354e-01	  -2.9535690833094147e-01	   6.0613910360592471e-01	  -7.9535865311179343e-01	   3.1790213000000000e-01	   8.8510661999999996e-01	   2.6729351000000001e-01	   7.2626886000000002e-01	   5.1450752000000000e-01	   7.7677015999999999e-01	
  -8.2797404060783353e-01	   5.6076642916595654e-01	   3.7108202384092454e-01	  -9.2860009238752694e-01	   2.1348147525482850e-01	   9.7694711203985962e-01	   6.9147643509515899e-01	   7.2239901696229514e-01	  -4.3720679416180713e-02	   9.9904379393067022e-01	  -7.5194007418043685e-01	   6.5923146529994991e-01	  -9.9617700438277512e-01	  -8.7357746874335479e-02	  -9.7762165512578258e-01	  -2.1037086164468072e-01	  -1.6742742077589562e-01	   9.8588440436611591e-01	   3.2520912000000002e-01	   2.6895616999999999e-01	   7.7605791000000002e-01	   2.0555739000000001e-01	   4.2505437000000001e-01	   8.3553280999999993e-02	
  -4.7674039025195353e-01	  -8.7904414013314203e-01	  -5.4543720060483014e-01	   8.3815169283153412e-01	   9.9680427800051319e-01	   7.9882609871459023e-02	   2.8106823385466506e-01	  -9.5968778668784738e-01	  -8.4200129583563865e-01	  -5.3947550251249154e-01	  -7.5438786810238967e-01	   6.5642893328975960e-01	   4.1793236437778936e-01	   9.0847814437420049e-01	  -9.7760450474059757e-01	   2.1045054599808213e-01	   7.0961134574999674e-01	  -7.0459331389311286e-01	   2.1080185000000001e-01	   9.0149820000000003e-01	   3.2529048999999999e-01	   4.4614658000000001e-01	   7.9254844000000002e-01	   4.1162875999999998e-01	
   9.8576979531480236e-01	  -1.6810089424215641e-01	   9.4348417870997470e-01	  -3.3141756821865154e-01	   8.7434661614457088e-01	  -4.8530196253110142e-01	  -7.9726474017440296e-01	  -6.0362979886238366e-01	   2.7126213185071635e-01	   9.6250550950309088e-01	   3.6472927403617089e-01	  -9.3111361103844237e-01	  -8.5283371164760913e-01	   5.2218259285173674e-01	  -8.8739020871341001e-01	  -4.6101910749942970e-01	  -6.8444879075345055e-01	   7.2906093904154490e-01	   2.1752021999999999e-01	   9.5274444999999999e-02	   7.1571107000000000e-01	   6.8751200000000002e-03	   8.7835876000000002e-01	   5.6977095000000000e-01	
  -5.4332754378152393e-01	   8.3952080389251593e-01	  -4.0959036033667245e-01	  -9.1226955266482224e-01	   9.8841099265815102e-01	   1.5180154673957888e-01	  -3.6236365438235218e-01	   9.3203679218294122e-01	  -7.3738516396533438e-01	  -6.7547251606843117e-01	   8.9676681978596917e-01	  -4.4250341346814381e-01	   8.7473760072366166e-02	   9.9616682403039403e-01	  -5.8558212273956400e-01	  -8.1061308743927041e-01	   9.7934643132208510e-01	   2.0218943458226596e-01	   3.4247891000000003e-01	   7.6156133999999998e-01	   3.4203765000000003e-01	   2.0574508000000000e-01	   7.4966129000000004e-01	   5.3158874000000000e-01	
  -6.0152731617956856e-01	  -7.9885223157340268e-01	  -2.7632977577961060e-01	   9.6106287776481625e-01	   9.3396713298999123e-01	  -3.5735891550996196e-01	   6.4991414185086771e-01	   7.6000763694995210e-01	  -1.5522321644450046e-01	   9.8787942233686787e-01	  -8.5167766887258578e-01	   5.2406597709044067e-01	  -9.5181150615324750e-01	  -3.0668364278892746e-01	   2.1619268729559779e-01	  -9.7635071667915918e-01	  -9.9807490628499751e-01	  -6.2020008418197964e-02	   8.8175181000000002e-01	   1.3117706000000001e-01	   9.3655222000000005e-01	   7.9274891999999997e-01	   8.5791611999999995e-01	   5.8495111000000000e-01	
   5.0941693684086387e-01	  -8.6051983385606601e-01	  -4.8098876891934272e-01	  -8.7672675570753233e-01	  -9.9946458747636313e-01	  -3.2719082821852943e-02	   8.7092774746410306e-01	  -4.9141108931026739e-01	   5.1703028260579276e-01	  -8.5596710618374472e-01	   2.9664291337080394e-02	  -9.9955991807368350e-01	  -4.6535937373714809e-01	  -8.8512182962288832e-01	   2.0796356394577054e-02	  -9.9978373239451623e-01	   8.6653433425117643e-01	  -4.9911746870237911e-01	   4.9216027000000001e-01	   7.4792800999999998e-01	   3.4813263000000000e-01	   5.3811417000000000e-02	   8.9557816000000001e-01	   3.9089641000000003e-01	
   8.6698983614643987e-01	   4.9832582114392726e-01	   5.0334275196246125e-01	   8.6408684404222713e-01	   5.7962639524250931e-03	   9.9998320152100251e-01	  -9.4128952453037562e-01	  -3.3760040137621200e-01	   7.7205193798124117e-01	   6.3555944258535713e-01	  -5.1215927869985933e-01	  -8.5889048966771064e-01	   1.9212838988118036e-01	   9.8136979870060459e-01	  -6.4785345340463030e-01	  -7.6176499191791069e-01	  -9.8432344787327086e-01	  -1.7637275857364201e-01	   5.0362985999999998e-01	   1.3484335000000000e-01	   4.2124001999999999e-01	   2.0763475999999999e-02	   7.6445532999999999e-01	   8.8388739999999993e-02	
  -9.2526234879045144e-01	   3.7932780798509497e-01	   7.1222082817844579e-01	  -7.0195547715564466e-01	  -3.9271988388528800e-01	   9.1965813909361227e-01	  -8.4431349666835265e-01	   5.3584953050614836e-01	   4.2573056131268078e-01	  -9.0484998157948249e-01	   1.2541337894737306e-01	   9.9210457330918633e-01	  -6.3750697832877945e-01	  -7.7044458112320391e-01	   5.7794886122609901e-01	  -8.1607298313781673e-01	   9.8447411685957853e-01	   1.7552980725094244e-01	   4.2384922000000003e-01	   6.7293228000000005e-01	   9.5639295000000002e-01	   6.3163396000000005e-01	   9.8132275000000002e-01	   7.9359192999999995e-01	
   4.5231688414452492e-01	  -8.9185729593797036e-01	  -5.9081887263557686e-01	  -8.0680422640044835e-01	  -9.8679158727313487e-01	   1.6199494833780190e-01	   3.5395145411396334e-01	   9.3526379601191179e-01	  -7.4943673626122176e-01	   6.6207596115712275e-01	  -8.8447989924612791e-01	  -4.6657829764098474e-01	   1.2331084331574420e-01	  -9.9236809497321099e-01	   9.9422005896311683e-01	   1.0736141930589607e-01	  -6.7402362123661341e-01	  -7.3870979282468041e-01	   6.5340657000000002e-01	   3.7631806000000001e-01	   6.8737937999999998e-01	   3.8239364999999997e-01	   7.2312133000000001e-01	   3.8303543000000001e-01	
   6.3572374820994915e-01	   7.7191665091633643e-01	  -1.9171063192378632e-01	   9.8145149325240855e-01	  -8.7947375120652382e-01	   4.7594739303700928e-01	   9.7669427741608605e-01	  -2.1463524515481963e-01	   9.0786342307466095e-01	  -4.1926603134902213e-01	   7.9671574256871480e-01	  -6.0435422191226684e-01	   6.4843198991368167e-01	  -7.6127258879890269e-01	   7.8658826650267755e-01	   6.1747785304439284e-01	   4.5522722728564724e-01	   8.9037529813995941e-01	   7.6532071000000002e-01	   2.0263018999999999e-01	   8.2794668999999999e-01	   8.6061208000000000e-01	   5.9058873999999995e-01	   4.6253007000000002e-01	
  -9.9862444599027078e-01	   5.2432965495237051e-02	   9.9450156825875058e-01	  -1.0472168223861616e-01	  -9.8764270928742970e-01	   1.5672229832217746e-01	  -5.6225717293360948e-02	  -9.9841808312692681e-01	  -9.9367733742969411e-01	   1.1227354576494787e-01	   1.6796615940364504e-01	   9.8579276183952036e-01	   9.7478930184273227e-01	  -2.2312735603900863e-01	   1.0849839668490303e-01	   9.9409662403450771e-01	   3.7983548800732902e-03	  -9.9999278622408327e-01	   4.6483016999999999e-01	   9.0848616000000004e-01	   7.2225013000000005e-01	   7.7364414999999997e-01	   1.9337654000000001e-01	   8.6285699999999999e-01	
   6.6161672387688575e-01	  -7.4984219052172352e-01	  -1.2452662137283346e-01	  -9.9221626703530064e-01	  -8.2639451441318867e-01	  -5.6309156142477412e-01	   0.0000000000000000e+00	   0.0000000000000000e+00	   0.0000000000000000e+00	   0.0000000000000000e+00	   0.0000000000000000e+00	   0.0000000000000000e+00	   0.0000000000000000e+00	   0.0000000000000000e+00	   0.0000000000000000e+00	   0.0000000000000000e+00	   0.0000000000000000e+00	   0.0000000000000000e+00	   2.5775717999999997e-01	   4.8198737999999998e-02	   8.6986105000000002e-01	   3.1802977999999998e-01	   7.6977649000000004e-01	   5.1731691000000002e-01	
   6.5486073394526767e-01	   7.5574957435427337e-01	  -1.4231483827333072e-01	   9.8982144188092613e-01	  -8.4125353283121851e-01	   5.4064081745553949e-01	   8.1728434625592983e-01	   5.7623458536000538e-01	   3.3590740526996526e-01	   9.4189501277201770e-01	  -2.6822061801875136e-01	   9.6335751415019288e-01	  -7.7433243016959863e-01	   6.3277901955393856e-01	   9.9718384217101205e-02	   9.9501570030282971e-01	   9.7069646944517174e-01	   2.4030889331582941e-01	   6.5742573000000004e-01	   1.6601648999999999e-01	   3.2525816000000002e-01	   1.5043329000000000e-01	   6.0782685999999997e-01	   7.0581147000000000e-01	
  -9.5919879320908608e-01	   2.8273251512026865e-01	   8.4012464978753409e-01	  -5.4239337460866266e-01	  -6.5249430723373092e-01	   7.5779362561819796e-01	  -9.0173648922809135e-01	  -4.3228613671339994e-01	   6.2625739201080743e-01	   7.7961636652383193e-01	  -2.2770179482184155e-01	  -9.7373091387452204e-01	  -2.1560335790364377e-01	   9.7648102493631350e-01	   9.8716589894478712e-01	   1.5969811508133192e-01	   7.4272320557557947e-01	  -6.6959856623169045e-01	   2.8549148000000002e-01	   5.6008343999999999e-01	   4.9788697999999998e-01	   6.8703427999999997e-02	   8.1459714000000005e-01	   7.5928547999999996e-01	
   5.8297947911448977e-01	  -8.1248687800566854e-01	  -3.2026985386279622e-01	  -9.4732635385420538e-01	  -9.5640098427650333e-01	  -2.9205677063703850e-01	  -8.9326255123853515e-01	   4.4953533182034011e-01	   5.9583597089035345e-01	  -8.0310615474739699e-01	  -1.7121336771587864e-01	   9.8523397358971909e-01	  -2.8995899158629979e-01	  -9.5703907088386742e-01	  -1.5551217852957069e-01	   9.8783397508335724e-01	  -8.8599529513747188e-01	   4.6369422790699477e-01	   6.6598166999999997e-01	   9.8710611000000004e-01	   3.2731202999999998e-01	   5.3379304000000005e-01	   5.5814511000000000e-01	   8.6636835000000001e-01	
   9.6414018811587399e-01	   2.6539347704848953e-01	   8.5913260468022568e-01	   5.1175303377251324e-01	   6.9250835406987321e-01	   7.2140985545211067e-01	   8.9467291778490565e-01	   4.4672180401480671e-01	   6.0087925963551325e-01	   7.9933979967212787e-01	   1.8050788312417138e-01	   9.8357353773372247e-01	  -2.7788823067975493e-01	   9.6061341404837530e-01	   7.4403306241445333e-01	   6.6814280063035192e-01	   9.8114716809618030e-01	  -1.9326208768624478e-01	   4.4852882999999999e-01	   4.3109257000000001e-01	   1.4753753000000000e-01	   9.6966814999999995e-01	   6.0411252000000004e-01	   4.2821374000000001e-01	
  -2.2094956267557281e-01	   9.7528523558673497e-01	  -9.0236258150694626e-01	  -4.3097769257366420e-01	   6.1970279819309437e-01	  -7.8483657019257769e-01	  -2.0543628854609804e-02	  -9.9978895738724982e-01	  -9.9915591862696806e-01	   4.1078586547001916e-02	   6.1596205574927211e-02	   9.9810115091546270e-01	   9.9662509945460098e-01	  -8.2087825754534216e-02	   9.7961851465363547e-01	   2.0086703499530495e-01	  -9.7054030303124483e-01	  -2.4093883080985409e-01	   9.5225108999999997e-01	   6.7249444999999997e-01	   4.4639752999999999e-01	   5.1951592999999996e-01	   2.4881742000000001e-01	   7.2345596999999995e-01	
  -7.8691143896110971e-01	  -6.1706595047219681e-01	   2.3845922553568863e-01	   9.7115251003996261e-01	   4.1161885436142864e-01	  -9.1135608778028421e-01	  -9.7286440899562221e-01	   2.3137597478908384e-01	   8.9293031658080246e-01	  -4.5019490193793604e-01	  -7.6453584043369049e-01	   6.4458121962430037e-01	   5.9464910053818421e-01	  -8.0398535262100912e-01	   9.0833236779645188e-01	   4.1824909995514781e-01	   6.2278389619713759e-01	   7.8239390247976304e-01	   5.4047257999999998e-01	   5.3010053000000001e-01	   3.4444893999999998e-01	   2.4427183000000000e-01	   7.3103178000000002e-01	   6.4497380999999998e-01	
   8.7037970164423673e-01	  -4.9238112775134807e-01	   5.1512165006862132e-01	  -8.5711707813494242e-01	   2.6323154550191134e-02	  -9.9965348573119417e-01	   9.9656719167288424e-02	   9.9502187831464906e-01	  -9.8013707664962446e-01	   1.9832123178502162e-01	  -2.9501120995352620e-01	  -9.5549379171282767e-01	   9.2133737804654348e-01	  -3.8876398471864732e-01	   5.7666918007749990e-01	   8.1697775780540316e-01	  -4.0319080908616312e-01	  -9.1511593334858132e-01	   4.5088529999999999e-01	   4.7514324000000002e-01	   2.2741743000000000e-01	   7.5064916999999998e-01	   2.0294609999999999e-01	   6.9459064999999998e-01	
   4.5020374481758585e-01	   8.9292585814961256e-01	  -5.9463317630444412e-01	   8.0399713036682408e-01	  -9.8561591034765883e-01	  -1.6900082032213865e-01	   0.0000000000000000e+00	   0.0000000000000000e+00	   0.0000000000000000e+00	   0.0000000000000000e+00	   0.0000000000000000e+00	   0.0000000000000000e+00	   0.0000000000000000e+00	   0.0000000000000000e+00	   0.0000000000000000e+00	   0.0000000000000000e+00	   0.0000000000000000e+00	   0.0000000000000000e+00	   2.9629664000000000e-01	   4.2250535000000000e-01	   3.9850762000000001e-01	   2.4092366000000001e-01	   2.9718696999999999e-01	   2.8416712999999999e-01	
  -8.8052439425867879e-01	   4.7400083450916697e-01	   5.5064641776922663e-01	  -8.3473859536858508e-01	  -8.9190812655240023e-02	   9.9601455759336066e-01	   0.0000000000000000e+00	   0.0000000000000000e+00	   0.0000000000000000e+00	   0.0000000000000000e+00	   0.0000000000000000e+00	   0.0000000000000000e+00	   0.0000000000000000e+00	   0.0000000000000000e+00	   0.0000000000000000e+00	   0.0000000000000000e+00	   0.0000000000000000e+00	   0.0000000000000000e+00	   2.7805085000000002e-01	   4.2172090000000001e-01	   6.8629983999999999e-01	   4.4883603000000000e-01	   2.3529486999999999e-01	   8.8695158999999996e-02	
  -3.6202910792740606e-01	  -9.3216679034027305e-01	  -7.3786985002657313e-01	   6.7494302309288479e-01	   8.9628983507070437e-01	   4.4346874923598562e-01	  -8.5469123063719510e-01	   5.1913668746475339e-01	   4.6099419945624603e-01	  -8.8740314855633395e-01	   6.6675831337460134e-02	   9.9777469075711600e-01	  -5.7496869613538970e-01	  -8.1817540812735867e-01	   7.9334508348286115e-01	   6.0877218933979893e-01	  -1.7449887592093999e-01	   9.8465737305030543e-01	   5.7515903999999995e-01	   3.1302165999999998e-01	   6.4907917999999998e-01	   6.9179559000000002e-01	   7.7876458999999998e-01	   5.8760261000000003e-01	
   9.9061199441305969e-01	  -1.3670360831002268e-01	   9.6262424695003979e-01	  -2.7084046814290658e-01	   9.1656225587003826e-01	  -3.9989202431959864e-01	   4.7912988416625441e-01	   8.7774401399202473e-01	  -5.4086910819766321e-01	   8.4110677550324398e-01	  -9.9742299048595784e-01	  -7.1745230155382603e-02	  -4.1492121559492889e-01	  -9.0985734313090338e-01	   5.9462258402206403e-01	   8.0400496427007428e-01	   3.5464103625159837e-01	  -9.3500253229945451e-01	   1.6723926000000000e-01	   1.4156931000000000e-01	   3.5846525000000001e-01	   4.2579317999999999e-01	   4.7461094999999998e-01	   5.8141507000000003e-01	
   7.7620363107642543e-01	   6.3048229404462464e-01	   2.0498415379245499e-01	   9.7876529193366435e-01	  -4.5798474210276141e-01	   8.8896005309635096e-01	   8.5243892622349937e-01	  -5.2282681363806061e-01	   4.5330424588214535e-01	  -8.9135585523696403e-01	  -7.9610556998842050e-02	  -9.9682604260439245e-01	  -5.8903052133043909e-01	  -8.0811078754165333e-01	   9.9129923865613523e-01	   1.3162757856834822e-01	   3.3203314095500347e-01	   9.4326772090830857e-01	   4.5536827000000002e-02	   6.2796236999999999e-01	   3.2992738999999999e-01	   1.5884036000000001e-02	   7.7046395000000001e-01	   5.4589935000000001e-01	
  -5.0913246006839019e-01	   8.6068817704480471e-01	  -4.8156827620941806e-01	  -8.7640857786119919e-01	   9.9949654238318031e-01	   3.1727933498219091e-02	  -9.0408305005445166e-01	  -4.2735680479458826e-01	   6.3473232279152036e-01	   7.7273208708043262e-01	  -2.4361841866055683e-01	  -9.6987115953065106e-01	  -1.9422975680736246e-01	   9.8095606505620470e-01	   8.2811897664670320e-01	  -5.6055237089643739e-01	   9.2477078114009931e-02	  -9.9571481360050851e-01	   2.7771989000000002e-01	   4.1034825999999996e-03	   3.0453596999999999e-01	   4.8077790999999998e-01	   5.7166245999999998e-01	   4.8382278000000001e-01	
  -7.5659752303723637e-01	  -6.5388086692754555e-01	   1.4487962373216301e-01	   9.8944928855764347e-01	   5.3736639412859333e-01	  -8.4334889485979248e-01	  -9.1802269724546848e-01	   3.9652783930280988e-01	   6.8553134531569004e-01	  -7.2804311313936632e-01	  -3.4064397210057984e-01	   9.4019236556756791e-01	  -6.0093549179320381e-02	  -9.9819274959650584e-01	   9.5385566615211204e-01	   3.0026549610221731e-01	   4.3529173150365646e-01	   9.0028945816584383e-01	   7.2708189999999995e-01	   9.4806961999999995e-01	   1.1097197000000000e-01	   6.8411553999999997e-01	   8.3209474999999999e-01	   6.9685158000000003e-01	
   8.8903831156476473e-02	  -9.9604021445205748e-01	  -9.8419221761140141e-01	  -1.7710358210141267e-01	  -2.6390074863656171e-01	   9.6454984053135495e-01	   3.6545383717628777e-01	   9.3082946498976249e-01	  -7.3288698578625477e-01	   6.8035039947451936e-01	  -9.0112655952058840e-01	  -4.3355613676499560e-01	   7.4246667869723865e-02	  -9.9723990709870958e-01	   9.5963382616250414e-01	  -2.8125241276247359e-01	  -8.9465333369088995e-01	  -4.4676102394431993e-01	   5.2392307000000005e-01	   2.5192592000000003e-01	   9.3308488999999994e-01	   6.1328218999999995e-01	   3.5223564000000002e-01	   1.0019089000000000e-01	
   9.9775894160928547e-01	  -6.6911093539998356e-02	   9.9104581112256318e-01	  -1.3352228374477731e-01	   9.7989069757464331e-01	  -1.9953501148088995e-01	   8.6339701713436401e-01	  -5.0452511414545331e-01	   4.9090881839303468e-01	  -8.7121095724511788e-01	  -1.5698598163361343e-02	  -9.9987676941496406e-01	  -5.1801706404790904e-01	  -8.5537028318453090e-01	   8.2770376689873293e-01	  -5.6116528248070363e-01	   8.9522042111046196e-01	   4.4562360532943845e-01	   4.5824603000000003e-01	   5.9484857000000002e-01	   6.3025781000000003e-01	   2.2623393999999999e-01	   9.2787606000000000e-01	   9.4681091999999994e-02	
  -5.5673197325053547e-02	   9.9844904481881580e-01	  -9.9380099019921131e-01	  -1.1117370138241833e-01	   1.6632935458344236e-01	  -9.8607025398997583e-01	  -9.0744615601143575e-01	  -4.2016838760200542e-01	   6.4691705211986195e-01	   7.6256037641392560e-01	  -2.6663862839740088e-01	  -9.6379657700489518e-01	  -1.6299665535309574e-01	   9.8662662154621805e-01	   4.7003715416977004e-01	  -8.8264663014140821e-01	  -3.6899629635879827e-01	  -9.2943086524684015e-01	   3.5531198000000003e-01	   8.4443659000000004e-01	   2.2517002000000000e-01	   1.8543270000000001e-01	   1.6217007999999999e-01	   3.9992443000000000e-01	
  -9.3328538670120587e-01	  -3.5913561083521178e-01	   7.4204322606003870e-01	   6.7035203487302875e-01	  -4.5179081166370150e-01	  -8.9212390534961783e-01	  -9.7957436874271775e-01	   2.0108221229712511e-01	   9.1913188779538779e-01	  -3.9394996235269097e-01	  -8.2114170881422122e-01	   5.7072435907858421e-01	   6.8960685432462676e-01	  -7.2418394518830165e-01	   9.8643822667606063e-01	   1.6413294901447695e-01	   8.4200666039321315e-01	   5.3946712953938925e-01	   4.5301857000000001e-01	   2.4329603999999999e-01	   9.0791964999999997e-01	   7.4211888999999998e-01	   3.0310080000000000e-01	   3.8760654999999999e-01	
  -1.1465415405003296e-02	  -9.9993426996457657e-01	  -9.9973708849918141e-01	   2.2929323565685163e-02	   3.4390217435867503e-02	   9.9940848152530393e-01	   3.1415491611103158e-01	   9.4937173366562311e-01	  -8.0261337736654148e-01	   5.9649959469581681e-01	  -8.1844479258338665e-01	  -5.7458517340176574e-01	   2.8837646705545250e-01	  -9.5751710859316530e-01	   9.4570741481320231e-01	  -3.2501920799751166e-01	  -9.5291124804267613e-01	  -3.0324932539702265e-01	   6.0566953000000000e-02	   5.2553223999999998e-01	   5.2270731000000004e-01	   9.3846021999999996e-01	   8.1980717000000003e-01	   9.5769493000000006e-01	
   9.0643899030762243e-01	  -4.2233678131332347e-01	   6.4326328629980400e-01	  -7.6564505124684012e-01	   2.5971885716349230e-01	  -9.6568427305910365e-01	   8.3028357494752503e-01	  -5.5734117484029266e-01	   3.7874162965528463e-01	  -9.2550244622370348e-01	  -2.0135766644424241e-01	  -9.7951778450629945e-01	  -7.1310955593211844e-01	  -7.0105260946543579e-01	   5.1721572746900224e-01	  -8.5585506439975623e-01	   9.8798708321987316e-01	   1.5453647915844165e-01	   3.7791373000000000e-01	   9.8740463000000001e-01	   1.6123281000000000e-01	   8.7585117000000001e-01	   1.5159426000000001e-01	   1.9861865000000001e-01	
   4.3700262365386572e-02	   9.9904468722334760e-01	  -9.9618057413839278e-01	   8.7317029892811704e-02	  -1.3076696727168494e-01	  -9.9141313299278322e-01	  -7.6867244996384698e-01	  -6.3964260698188102e-01	   1.8171467066684585e-01	   9.8335129962004919e-01	   4.8931432777213024e-01	  -8.7210749832627188e-01	  -9.3395955692887955e-01	   3.5737871512054420e-01	   6.0544036049047534e-01	  -7.9589067709652395e-01	  -6.7262273596340449e-01	  -7.3998557760614780e-01	   9.5278744000000004e-01	   7.8910534000000004e-02	   2.2656873999999999e-01	   9.2374175999999997e-01	   6.1863931000000005e-01	   2.6699905999999999e-02	
  -8.9892706610738049e-01	  -4.3809831067875310e-01	   6.1613974036084551e-01	   7.8763685817010232e-01	  -2.0880231212209632e-01	  -9.7795786946701679e-01	  -9.8556524129477807e-01	   1.6929605769646813e-01	   9.4267768969686827e-01	  -3.3370461990774858e-01	  -8.7257548812381747e-01	   4.8847929078465713e-01	   7.7728245330445012e-01	  -6.2915180027161599e-01	   9.6011958769592287e-01	   2.7958965882630760e-01	   8.1178295393313193e-01	   5.8395927572357187e-01	   7.2159008000000002e-01	   7.9331682000000003e-01	   9.2771767000000005e-01	   3.6357177000000002e-01	   4.1049654000000002e-01	   1.7630483999999998e-02	
   5.2539614329897544e-01	  -8.5085773934692654e-01	  -4.4791778521312497e-01	  -8.9407474949792021e-01	  -9.9606469703096479e-01	  -8.8629111067483113e-02	  -1.3028704923621126e-01	   9.9147631580452844e-01	  -9.6605056960264213e-01	  -2.5835304714752388e-01	   3.8201480548918954e-01	  -9.2415620345645932e-01	   8.6650740605917864e-01	   4.9916421671088740e-01	   7.7515298349095119e-01	   6.3177357667528100e-01	  -9.1205760987196971e-01	  -4.1006208831667185e-01	   6.5047193000000003e-01	   1.1041093000000000e-01	   6.7543158999999997e-01	   8.0778282999999995e-01	   4.0997950000000000e-01	   4.1673199000000000e-01	
   8.7774700914951165e-01	   4.7912439713407123e-01	   5.4087962414182567e-01	   8.4110001318998773e-01	   7.1763935651287317e-02	   9.9742164481218165e-01	   0.0000000000000000e+00	   0.0000000000000000e+00	   0.0000000000000000e+00	   0.0000000000000000e+00	   0.0000000000000000e+00	   0.0000000000000000e+00	   0.0000000000000000e+00	   0.0000000000000000e+00	   0.0000000000000000e+00	   0.0000000000000000e+00	   0.0000000000000000e+00	   0.0000000000000000e+00	   5.5031434000000001e-01	   4.0779531000000002e-01	   7.5326172999999996e-01	   4.5661225999999999e-01	   1.9781436999999999e-02	   1.0532937000000001e-01	
  -9.8805785608331764e-01	   1.5408333145424263e-01	   9.5251665393592400e-01	  -3.0448649226970842e-01	  -8.9422526985985151e-01	   4.4761721006243249e-01	  -3.0422506351630929e-01	  -9.5260018409010272e-01	  -8.1489422145699508e-01	   5.7960970302091885e-01	   8.0004755607996436e-01	   5.9993658665768690e-01	   3.2810518432800445e-01	  -9.4464119538430369e-01	   4.4737177393326316e-01	   8.9434808429816925e-01	   1.5381215411620786e-01	  -9.8810010689511207e-01	   2.8147613999999999e-01	   9.5004920999999998e-01	   5.8757740999999997e-01	   6.5825655000000005e-01	   8.8170724000000000e-01	   6.9284692000000003e-01	
   6.4008509534561875e-01	  -7.6830402232214701e-01	  -1.8058214143278026e-01	  -9.8355990676498772e-01	  -8.7126096977905398e-01	  -4.9082005107744164e-01	   0.0000000000000000e+00	   0.0000000000000000e+00	   0.0000000000000000e+00	   0.0000000000000000e+00	   0.0000000000000000e+00	   0.0000000000000000e+00	   0.0000000000000000e+00	   0.0000000000000000e+00	   0.0000000000000000e+00	   0.0000000000000000e+00	   0.0000000000000000e+00	   0.0000000000000000e+00	   4.4798781999999998e-01	   7.3508001000000001e-01	   7.7676754000000003e-01	   1.3054763999999999e-01	   5.0153698999999996e-01	   7.0228195999999998e-01	
   5.1156041936952124e-01	   8.5924730859891529e-01	  -4.7661187466895910e-01	   8.7911382705798702e-01	  -9.9919196033381408e-01	   4.0192367487741756e-02	   9.4941310584214830e-02	   9.9548287154754789e-01	  -9.8197229508910333e-01	   1.8902489697772354e-01	  -2.8140078389051243e-01	  -9.5959032864332539e-01	   9.2853917664512198e-01	  -3.7123442382839300e-01	  -8.0679776147559712e-01	   5.9082770083837932e-01	   9.0393419479150305e-01	  -4.2767156964969855e-01	   5.3543015999999999e-01	   8.6006901000000002e-01	   4.3383716000000000e-01	   1.6025184000000001e-01	   7.8265741000000007e-03	   5.7761695000000002e-01	
  -8.5169900841669355e-01	   5.2403129588033293e-01	   4.5078240187595792e-01	  -8.9263387016118900e-01	   8.3837159037795511e-02	   9.9647946831054746e-01	   9.8829251902762372e-01	   1.5257095671861651e-01	   9.5344420633193205e-01	   3.0156947029179215e-01	   8.9627103382853346e-01	   4.4350674619438629e-01	   8.1811170917585574e-01	   5.7505932851259789e-01	  -9.2167971464442211e-01	   3.8795167690445231e-01	  -7.6177580231850450e-01	   6.4784074200531627e-01	   8.5916775999999995e-01	   4.7945725000000000e-01	   8.4298660999999997e-01	   4.1961865999999998e-01	   2.1684339999999999e-01	   4.3830756999999998e-01	
  -4.2659713127435966e-01	  -9.0444175466886023e-01	  -6.3602977517697346e-01	   7.7166451589296792e-01	   9.6925408626550513e-01	   2.4606201709654579e-01	  -1.9501545078792237e-01	  -9.8080017024569455e-01	  -9.2393794790796679e-01	   3.8254237466667029e-01	   5.5537980161060263e-01	   8.3159682296348858e-01	   7.0732266316876968e-01	  -7.0689083327472790e-01	  -8.0388359509622853e-01	   5.9478665547838483e-01	   9.7026965881683658e-01	  -2.4202642248204959e-01	   7.8318619000000000e-01	   2.3732174000000000e-01	   8.1035619000000003e-01	   7.6660767000000005e-02	   2.0851449999999999e-01	   2.2766833000000000e-01	
   9.5605344391960501e-01	   2.9319244937321054e-01	   8.2807637526107469e-01	   5.6061530190896469e-01	   6.2731709687402248e-01	   7.7876393083497930e-01	  -8.8994940294172065e-01	   4.5605927268686786e-01	   5.8401987959265023e-01	  -8.1173935486742688e-01	  -1.4954688335742913e-01	   9.8875463573026012e-01	  -3.1784156048117262e-01	  -9.4814384058058043e-01	  -9.8455232681505611e-01	   1.7509059301704072e-01	  -7.1712605637820048e-01	  -6.9694348355045976e-01	   3.9361183000000001e-02	   2.0901030000000001e-01	   9.4451856000000001e-01	   3.4979283999999999e-01	   5.4746534000000002e-01	   6.8143271000000005e-02	
  -9.8458074366719583e-01	   1.7493072685995312e-01	   9.3879848160049695e-01	  -3.4446685028403151e-01	  -8.6406507066850757e-01	   5.0338012838274326e-01	  -2.2490735579674823e-01	   9.7438015235764885e-01	  -8.9883336261702984e-01	  -4.3829052721518291e-01	   6.2921582557294042e-01	  -7.7723062526418951e-01	   6.1580282750687398e-01	   7.8790029676002737e-01	   5.0990423336749607e-02	  -9.9869914224852474e-01	   3.9188847991642034e-01	   9.2001272779717425e-01	   3.5430421000000001e-01	   9.3995284000000001e-01	   9.2699158999999998e-01	   8.6225847000000000e-01	   8.5371808000000005e-01	   4.8550826000000002e-01	
   2.5102984620698260e-01	  -9.6797934704894328e-01	  -8.7396803262659728e-01	  -4.8598341324246341e-01	  -6.8981396784713100e-01	   7.2398666407814261e-01	   0.0000000000000000e+00	   0.0000000000000000e+00	   0.0000000000000000e+00	   0.0000000000000000e+00	   0.0000000000000000e+00	   0.0000000000000000e+00	   0.0000000000000000e+00	   0.0000000000000000e+00	   0.0000000000000000e+00	   0.0000000000000000e+00	   0.0000000000000000e+00	   0.0000000000000000e+00	   7.3417745000000001e-01	   2.8394675000000003e-01	   8.7793616000000005e-02	   1.1448163000000000e-01	   7.6482381000000002e-02	   8.4364335000000001e-01	
   8.3952080389242534e-01	   5.4332754378166392e-01	   4.0959036033636809e-01	   9.1226955266495890e-01	  -1.5180154674007354e-01	   9.8841099265807508e-01	  -8.6202092651136863e-01	  -5.0687268841049382e-01	   4.8616015548703695e-01	   8.7386972897384430e-01	   2.3860471179675404e-02	  -9.9971529843005003e-01	  -5.2729660643364018e-01	   8.4968128662667797e-01	  -4.4828660839283502e-01	  -8.9388987953530885e-01	  -9.9908239400099974e-01	  -4.2829545844323844e-02	   9.7321882000000004e-01	   3.5116351000000001e-01	   2.9387092999999997e-01	   3.8538603999999999e-01	   7.7853097999999998e-01	   7.4616408999999995e-01	
  -9.9553970750728871e-01	   9.4343472356608185e-02	   9.8219861844739587e-01	  -1.8784534575023940e-01	  -9.6009574313907842e-01	   2.7967152877298906e-01	  -9.8920167167721818e-01	   1.4656074764751020e-01	   9.5703989449800564e-01	  -2.8995627315035999e-01	  -9.0420925532121366e-01	   4.2708971257975337e-01	   8.3185071932150767e-01	  -5.5499944212971086e-01	   9.7096249304301219e-01	  -2.3923176441204164e-01	   9.9861659273150549e-01	   5.2582323278061609e-02	   3.2153817000000001e-01	   5.0524932000000000e-01	   3.5550822999999998e-01	   7.0502801000000004e-01	   1.7854597999999999e-01	   6.9090256000000005e-01	
   7.1043772595596977e-01	  -7.0376007100325777e-01	   9.4435249229791549e-03	  -9.9995540892433254e-01	  -6.9701965321339010e-01	  -7.1705202254389144e-01	   5.2468756139721928e-01	   8.5129487424454708e-01	  -4.4940592583007849e-01	   8.9332766319464774e-01	  -9.9628295999970629e-01	   8.6140952016005218e-02	  -5.9606862765761992e-01	  -8.0293349109522238e-01	   9.7186517909947545e-01	   2.3553783911283649e-01	  -2.2634950318662858e-01	  -9.7404615003970241e-01	   7.1935230999999999e-01	   6.2589740999999999e-01	   8.9610791999999995e-01	   7.1243872000000000e-02	   6.6551517999999998e-01	   6.7633051000000000e-01	
   6.0207798710402738e-01	   7.9843728460334484e-01	  -2.7500419488952532e-01	   9.6144302628557454e-01	  -9.3322593131252540e-01	   3.5929007935910173e-01	   6.6833456349218467e-01	  -7.4386081442815022e-01	  -1.0665782248342197e-01	  -9.9429578541955754e-01	  -8.1090078195715420e-01	  -5.8518366503284758e-01	  -9.7724821780618965e-01	   2.1209884675458759e-01	   9.9631573749426816e-01	   8.5761012244798776e-02	  -1.9153668009542180e-01	   9.8148545591772474e-01	   1.3184731999999999e-01	   6.7872215999999996e-01	   9.1050288999999995e-01	   3.7682758000000000e-01	   3.4174049000000001e-01	   7.9762630999999995e-01	
  -9.5016192002918132e-01	   3.1175683749752714e-01	   8.0561534854708083e-01	  -5.9243895059775176e-01	  -5.8076813273176409e-01	   8.1406902410253890e-01	  -9.9689105856303295e-01	  -7.8792241731503496e-02	   9.8758356528584867e-01	   1.5709456253254581e-01	  -9.7213539307149477e-01	  -2.3442008774362838e-01	   9.5064259684541608e-01	   3.1028801630582453e-01	   9.7177194236572861e-01	  -2.3592221606016453e-01	   9.2264390216262027e-01	  -3.8565299143418202e-01	   2.8960280000000001e-03	   1.0466211000000000e-01	   9.2677703000000000e-01	   4.6517374000000000e-01	   5.1175243000000004e-01	   1.8558978000000001e-01	
   8.0096136152448816e-01	  -5.9871604066104511e-01	   2.8307820531032363e-01	  -9.5909683018884295e-01	  -3.4749195203795652e-01	  -9.3768296522270811e-01	  -7.8948068662733650e-01	   6.1377540309337031e-01	   2.4655950911514157e-01	  -9.6912765333824857e-01	   4.0017274552589455e-01	   9.1643972728066936e-01	  -8.7841681692980089e-01	  -4.7789527695397527e-01	  -2.6486634646311874e-01	   9.6428513340778987e-01	  -9.9982070485351893e-01	  -1.8935631656025201e-02	   7.0082990000000001e-01	   5.4971871999999999e-01	   1.0887246000000000e-01	   3.5439505999999998e-01	   4.1636793000000000e-01	   3.9992464999999999e-01	
  -2.2958647908357441e-01	   9.7328826594283335e-01	  -8.9458009724401488e-01	  -4.4690765222234541e-01	   6.4035346865256426e-01	  -7.6808035724436374e-01	   5.7916751434335501e-01	   8.1520855633962752e-01	  -3.2912998065867938e-01	   9.4428462649331391e-01	  -9.6041029993128268e-01	   2.7858940357792444e-01	  -7.8334691166323467e-01	  -6.2158476170806531e-01	  -9.2640195259923319e-01	   3.7653608355684604e-01	   6.6046389176388021e-01	   7.5085780789448386e-01	   6.1895913999999996e-01	   8.8330118000000002e-01	   4.1888590999999997e-01	   2.3546617999999998e-02	   9.8396390000000000e-01	   9.1588742000000001e-01	
  -9.3247222940437324e-01	  -3.6124166618710796e-01	   7.3900891722072415e-01	   6.7369564364648593e-01	  -4.4573835577666865e-01	  -8.9516329135499739e-01	   6.5072547010508830e-01	  -7.5931308599056280e-01	  -1.5311272511302354e-01	  -9.8820872967630868e-01	  -8.4999417016157475e-01	  -5.2679209437057417e-01	  -9.5311298681692735e-01	   3.0261466316243768e-01	  -8.8107895418000626e-01	   4.7296921305838341e-01	  -3.3248790549819490e-01	  -9.4310751916068580e-01	   7.5685062000000003e-01	   1.1499806999999999e-01	   5.7055418000000002e-01	   1.5310204999999999e-01	   5.8633944000000005e-01	   5.7236206000000001e-01	
   7.3680925233881167e-01	  -6.7610067716866051e-01	   8.5775748664157381e-02	  -9.9631446890081010e-01	  -6.1040852185473105e-01	  -7.9208676068163286e-01	  -9.8741073025300152e-01	  -1.5817727327664477e-01	   9.4995990043753131e-01	   3.1237187383104076e-01	  -8.8859046775118167e-01	  -4.5870140682336724e-01	   8.0484762487856876e-01	   5.9348150832804114e-01	  -8.3447712348406544e-01	   5.5104258490770008e-01	  -6.2058960033400234e-01	   7.8413554182761236e-01	   1.7023534000000001e-01	   5.0183741999999998e-01	   3.1430173000000000e-01	   8.7830733999999999e-01	   1.4148056000000001e-01	   1.5134865000000000e-01	
   5.1539544562566098e-01	   8.5695246929355795e-01	  -4.6873506925665270e-01	   8.8333879958312767e-01	  -9.9856328542547612e-01	   5.3585119205607115e-02	  -2.4394348126481405e-01	   9.6978945031816222e-01	  -8.8098315589680665e-01	  -4.7314762920900588e-01	   6.7376367723507324e-01	  -7.3894689067528530e-01	   5.5226264194779418e-01	   8.3367018317128416e-01	  -9.5679082337894528e-01	   2.9077709727184486e-01	   7.0533610491103749e-01	  -7.0887303454774320e-01	   1.4183760000000001e-01	   8.1044006999999996e-01	   5.7750054000000002e-02	   9.1285280000000002e-01	   7.7878480000000005e-01	   5.5684644000000005e-01	
  -8.4718662199601302e-01	   5.3129542395072860e-01	   4.3545034497803109e-01	  -9.0021275099751485e-01	   1.0937120837813963e-01	   9.9400097523991671e-01	   8.2988441921432454e-01	   5.5793534638459963e-01	   3.7741629850939357e-01	   9.2604370178705298e-01	  -2.0346060783334810e-01	   9.7908313286466364e-01	  -7.1511387523893666e-01	   6.9900797237281243e-01	  -9.9949547415580930e-01	  -3.1761567059165711e-02	  -4.0663848136680436e-01	   9.1358915573232324e-01	   1.2086920000000000e-01	   1.0115027000000000e-01	   4.5302782000000003e-01	   6.1118960999999999e-02	   5.7212554999999998e-01	   9.7164260000000002e-01	
  -1.3725589475540698e-01	  -9.9053562245630145e-01	  -9.6232163870978527e-01	   2.7191370629468731e-01	   4.0142452988260913e-01	   9.1589210434882895e-01	   4.6906616792788985e-01	  -8.8316302578031691e-01	  -5.5995386021088922e-01	  -8.2852379231674689e-01	  -9.9437699077899211e-01	   1.0589806518211911e-01	  -3.7290334886984777e-01	   9.2787019156865502e-01	  -9.3918653405012964e-01	  -3.4340741730327362e-01	   8.1042234089326426e-01	  -5.8584607994001436e-01	   6.5176746999999993e-02	   6.8525322000000000e-02	   6.8474696000000002e-01	   6.9848558999999999e-01	   3.8469799999999998e-01	   1.1297314999999999e-01	
   8.2055953933962100e-01	   5.7156105745471231e-01	   3.4663591520250203e-01	   9.3799975601901076e-01	  -2.5168872554535487e-01	   9.6780823794456050e-01	   0.0000000000000000e+00	   0.0000000000000000e+00	   0.0000000000000000e+00	   0.0000000000000000e+00	   0.0000000000000000e+00	   0.0000000000000000e+00	   0.0000000000000000e+00	   0.0000000000000000e+00	   0.0000000000000000e+00	   0.0000000000000000e+00	   0.0000000000000000e+00	   0.0000000000000000e+00	   1.9426676000000001e-01	   5.9785590000000000e-01	   9.8304524999999998e-01	   3.7515108000000003e-01	   1.4513992000000001e-01	   6.3992000999999998e-01	
  -6.5880489955135013e-01	   7.5231383366726379e-01	  -1.3195220865427101e-01	  -9.9125607924050574e-01	   8.3266642268746172e-01	   5.5377488976014910e-01	   1.5432522103193796e-01	   9.8802010412412333e-01	  -9.5236745230688702e-01	   3.0495284190590738e-01	  -4.4827385619370574e-01	  -8.9389627466122978e-01	   8.1400752842702129e-01	  -5.8085432223934785e-01	  -8.4497140401413429e-01	  -5.3481148678612223e-01	   6.4163098053376266e-01	   7.6701348411829262e-01	   8.1733758999999995e-01	   4.6379801999999998e-01	   5.9958396000000003e-01	   8.1889157999999995e-01	   7.0302608000000003e-02	   3.1884844000000001e-01	
  -5.1443953378157525e-01	  -8.5752665619361101e-01	  -4.7070393216519096e-01	   8.8229122643502877e-01	   9.9873695660600537e-01	  -5.0244318180009975e-02	   9.4782648048259510e-01	   3.1878670439021878e-01	   7.9675007420804655e-01	   6.0430896009365309e-01	   5.6253515683912336e-01	   8.2677336514910960e-01	   2.6962136150105531e-01	   9.6296641759841095e-01	  -2.1423131607057214e-01	  -9.7678295604226772e-01	  -7.6096750938002300e-01	  -6.4878998887772965e-01	   8.8170216000000001e-01	   5.3828452999999998e-01	   8.4357081000000000e-01	   6.5821392999999995e-01	   9.0017956999999996e-02	   4.4515241999999999e-01	
   9.8571877563646859e-01	  -1.6839980806919394e-01	   9.4328300928451725e-01	  -3.3198970525476434e-01	   8.7390477034476699e-01	  -4.8609716350608356e-01	  -2.8481699617196232e-01	  -9.5858191026723449e-01	  -8.3775855738316074e-01	   5.4604084053419055e-01	   7.6203274783441910e-01	   6.4753848629091115e-01	   4.0367880093742936e-01	  -9.1490077367642408e-01	  -4.4217447045468788e-01	  -8.9692905944568235e-01	  -1.1932445103947989e-01	   9.9285531442608832e-01	   4.0847431000000001e-01	   5.1214877999999997e-01	   4.7099468999999998e-02	   2.4412524999999999e-01	   4.7411931999999997e-02	   5.0952478000000001e-01	
  -5.7708677428232869e-01	   8.1668283620290227e-01	  -3.3394170989683314e-01	  -9.4259372711215272e-01	   9.6251346260770598e-01	   2.7123391067291736e-01	  -8.1835012035283572e-01	   5.7472000184307082e-01	   3.3939383896300135e-01	  -9.4064436535491791e-01	   2.6286414242806955e-01	   9.6483285735175683e-01	  -7.6962364414791262e-01	  -6.3849780451344318e-01	   2.8950700602371209e-03	  -9.9999580927589204e-01	   9.4162299231570978e-01	  -3.3666918531758855e-01	   3.0265553999999999e-03	   4.1922003000000002e-01	   5.4199657000000001e-01	   2.3251949000000000e-01	   2.1360826999999999e-01	   6.0398401000000002e-01	
  -3.0659669987356991e-01	  -9.5183951568877201e-01	  -8.1199692725327222e-01	   5.8366170863886913e-01	   8.0450785628023491e-01	   5.9394200826627919e-01	   7.3153665380367427e-01	   6.8180211509038546e-01	   7.0291751716553497e-02	   9.9752647565897634e-01	  -6.2869466812222186e-01	   7.7765224507789432e-01	  -9.9011813928123682e-01	   1.4023576671541882e-01	   4.2467947113045179e-01	  -9.0534377271860644e-01	  -8.7325291891597367e-01	  -4.8726721581154209e-01	   9.7002737999999999e-01	   8.0204074999999997e-01	   7.7983367999999997e-01	   5.1029068000000000e-01	   2.9525336000000002e-01	   9.1732548999999997e-02	
   9.8199275719538792e-01	  -1.8891856662541118e-01	   9.2861955036840016e-01	  -3.7103332825177626e-01	   8.4180258810822450e-01	  -5.3978551541727671e-01	   3.2074330122015121e-01	  -9.4716616003866994e-01	  -7.9424746944479874e-01	  -6.0759440194963410e-01	  -8.3024241189110304e-01	   5.5740249147025178e-01	   2.6165808543893293e-01	   9.6516063239464556e-01	   1.3603032540652676e-01	  -9.9070467373975502e-01	   4.9390487202772743e-01	   8.6951594429732804e-01	   8.3198532999999997e-01	   7.2433864999999997e-01	   4.6898153999999997e-01	   3.4113048000000001e-01	   8.8928784000000005e-01	   8.0636556000000004e-01	
  -5.0961664259187245e-01	   8.6040157926016603e-01	  -4.8058175518677543e-01	  -8.7694992820662132e-01	   9.9944156373025983e-01	   3.3414977007517888e-02	   0.0000000000000000e+00	   0.0000000000000000e+00	   0.0000000000000000e+00	   0.0000000000000000e+00	   0.0000000000000000e+00	   0.0000000000000000e+00	   0.0000000000000000e+00	   0.0000000000000000e+00	   0.0000000000000000e+00	   0.0000000000000000e+00	   0.0000000000000000e+00	   0.0000000000000000e+00	   4.9586532000000000e-01	   9.0141738999999999e-01	   4.4395461000000003e-01	   8.5462232999999999e-01	   6.2895334000000003e-01	   5.4830299000000005e-01	
  -6.1505340790544194e-01	  -7.8848545035650597e-01	  -2.4341861084780408e-01	   9.6992132665125230e-01	   9.1448430020454330e-01	  -4.0462138435753342e-01	  -7.8052809442038851e-01	   6.2512070340093284e-01	   2.1844821235904596e-01	  -9.7584854281652600e-01	   4.3951816057609555e-01	   8.9823370373405909e-01	  -9.0456075703427430e-01	  -4.2634473942290002e-01	   9.7296504378746085e-01	   2.3095242706597474e-01	  -1.2832114909059767e-02	   9.9991766502395618e-01	   6.5044033999999995e-01	   5.6954309999999997e-01	   7.9518736000000001e-01	   2.4965892000000001e-01	   6.2690756000000003e-01	   9.0735960999999998e-01	
   9.9930622125079860e-01	  -3.7243471501054934e-02	   9.9722584766110023e-01	  -7.4435265543962043e-02	   9.9376176586887843e-01	  -1.1152377637601978e-01	   5.8145301414401451e-01	   8.1357998521524633e-01	  -3.2382478468568093e-01	   9.4611706930129547e-01	  -9.5803080836406584e-01	   2.8666525814143307e-01	  -7.9027501764654473e-01	  -6.1275231250787898e-01	   6.1135015739233500e-01	   7.9136021194925332e-01	   5.5074907140594953e-01	  -8.3467086947220359e-01	   3.1300602999999999e-01	   6.1145923000000002e-01	   1.2603991000000000e-01	   3.9130886999999998e-01	   4.4806550000000001e-02	   9.6047642000000000e-01	
  -2.0752220142942049e-01	   9.7823030821677526e-01	  -9.1386907182777410e-01	  -4.0600901413225143e-01	   5.8681844463734256e-01	  -8.0971853939094796e-01	   2.9662293227904052e-01	  -9.5499467854338527e-01	  -8.2402967209236755e-01	  -5.6654664372083730e-01	  -7.8547512752098902e-01	   6.1889322507673805e-01	   3.5804980097730943e-01	   9.3370249010062578e-01	   8.7264889483587971e-01	   4.8834814051219411e-01	  -9.9576058263787237e-01	   9.1982944422784360e-02	   3.2644214999999999e-01	   4.5652431999999998e-01	   1.4974957000000000e-01	   1.5671549000000001e-01	   4.4814314999999999e-01	   6.0570250999999997e-01	
  -3.6357760597428435e-01	  -9.3156391323086796e-01	  -7.3562264886801609e-01	   6.7739155476902990e-01	   8.9848944912607409e-01	   4.3899511365062349e-01	   0.0000000000000000e+00	   0.0000000000000000e+00	   0.0000000000000000e+00	   0.0000000000000000e+00	   0.0000000000000000e+00	   0.0000000000000000e+00	   0.0000000000000000e+00	   0.0000000000000000e+00	   0.0000000000000000e+00	   0.0000000000000000e+00	   0.0000000000000000e+00	   0.0000000000000000e+00	   5.5138945000000002e-02	   8.7777559999999999e-01	   8.6444631999999993e-02	   9.1470059999999997e-01	   1.6022053999999999e-01	   8.6690022000000000e-01	
   9.5699166964605120e-01	   2.9011539812299364e-01	   8.3166611154387382e-01	   5.5527603847950513e-01	   6.3480341170277055e-01	   7.7267368823489957e-01	  -2.4411360608238057e-02	   9.9970199833413087e-01	  -9.9880817094650909e-01	  -4.8808171964221339e-02	   7.3175893487097882e-02	  -9.9731905056123582e-01	   9.9523552469902199e-01	   9.7500001933653199e-02	  -3.1339041199786838e-01	   9.4962437293269086e-01	   2.6666747450424921e-01	  -9.6378859613585677e-01	   9.3194966000000001e-01	   1.8940956000000000e-01	   1.0041213000000000e-01	   7.6597291999999995e-01	   6.9191013999999995e-01	   1.6323197000000000e-01	
  -1.5851063795870543e-01	   9.8735726950983871e-01	  -9.4974875530784841e-01	  -3.1301326136633995e-01	   4.5960120016737255e-01	  -8.8812540601241152e-01	   9.9968505325986168e-01	   2.5095702596811612e-02	   9.9874041142234482e-01	   5.0175597574174523e-02	   9.9716666951118405e-01	   7.5223887269756484e-02	   9.9496481881614895e-01	   1.0022479392918614e-01	  -1.8323913994242197e-01	   9.8306836872781211e-01	  -1.3368229115758420e-01	   9.9102424038509718e-01	   6.3366076000000005e-01	   3.5742994000000000e-01	   5.3749687999999995e-01	   1.6990314000000001e-01	   1.5714527000000000e-01	   7.9270034000000003e-02	
  -9.4677867083173550e-01	  -3.2188530326514181e-01	   7.9277970308381540e-01	   6.0950827917128214e-01	  -5.5439515626441005e-01	  -8.3225357356430751e-01	  -9.6709921865693904e-01	  -2.5439949149543928e-01	   8.7056179745372386e-01	   4.9205909890392385e-01	  -7.1674004956321469e-01	  -6.9734044867060485e-01	   5.1575568637171698e-01	   8.5673570719051928e-01	   8.3374145533191923e-01	   5.5215503770319196e-01	   9.9751637027293394e-01	   7.0435012866549102e-02	   7.7650028000000004e-01	   4.4100043999999999e-01	   5.6154806999999995e-01	   9.3932313000000001e-01	   5.4448284000000002e-01	   4.1956911000000002e-01	
   8.0766699851592727e-01	  -5.8963888907387474e-01	   3.0465196098345371e-01	  -9.5246374349312435e-01	  -3.1555232867693322e-01	  -9.4890817673079664e-01	   0.0000000000000000e+00	   0.0000000000000000e+00	   0.0000000000000000e+00	   0.0000000000000000e+00	   0.0000000000000000e+00	   0.0000000000000000e+00	   0.0000000000000000e+00	   0.0000000000000000e+00	   0.0000000000000000e+00	   0.0000000000000000e+00	   0.0000000000000000e+00	   0.0000000000000000e+00	   1.2838809000000001e-01	   3.5759326000000001e-02	   7.3669890000000005e-01	   7.5920354000000001e-01	   9.3400446999999998e-01	   3.8636867000000003e-01	
   3.3343850097611899e-01	   9.4277185260634433e-01	  -7.7763753213359743e-01	   6.2871286659107617e-01	  -8.5202708701090957e-01	  -5.2349770104529014e-01	   5.9143807783098512e-01	   8.0635042015961622e-01	  -3.0040200018317914e-01	   9.5381268511482131e-01	  -9.4677644096083058e-01	   3.2189186203062503e-01	  -8.1951727657189044e-01	  -5.7305447681716226e-01	  -5.6299625337162462e-01	   8.2645944769813928e-01	   9.5741270555594638e-01	   2.8872289697916698e-01	   8.3680429000000001e-01	   9.1981645000000001e-01	   2.1343392000000000e-01	   7.1300145999999995e-02	   6.2903880000000001e-01	   7.6412068000000000e-01	
  -9.9591228394766695e-01	  -9.0325647975210643e-02	   9.8368255463571663e-01	   1.7991284474808997e-01	  -9.6341079538579766e-01	  -2.6802917627397349e-01	   8.0505997942721941e-01	  -5.9319341662281200e-01	   2.9624314095070986e-01	  -9.5511255956544616e-01	  -3.2807298550875436e-01	  -9.4465237848606121e-01	  -8.2448000287931567e-01	  -5.6589108921427944e-01	  -8.5534970255730858e-01	   5.1805104607087094e-01	  -7.4818854309513927e-01	  -6.6348617467221804e-01	   6.9613860999999999e-01	   5.2914450999999996e-01	   9.7309447999999998e-01	   8.1696433000000002e-01	   6.6763687000000005e-01	   8.7969326000000003e-01	
   3.5379195843411415e-01	  -9.3532414175373124e-01	  -7.4966250029470805e-01	  -6.6182031976351929e-01	  -8.8424108672187307e-01	   4.6703072763247699e-01	  -8.6202092651136863e-01	  -5.0687268841049382e-01	   4.8616015548703695e-01	   8.7386972897384430e-01	   2.3860471179675404e-02	  -9.9971529843005003e-01	  -5.2729660643364018e-01	   8.4968128662667797e-01	  -7.7906633406759829e-01	   6.2694150215348909e-01	   1.6911419046430484e-01	   9.8559646437251536e-01	   7.4366648000000002e-01	   5.5465629999999999e-01	   1.9349874000000000e-01	   7.6230061000000005e-01	   8.6353113000000004e-01	   1.7753421999999999e-01	
   5.0469157896352690e-01	   8.6329972206835681e-01	  -4.9057282024660415e-01	   8.7140019969890581e-01	  -9.9986752145722513e-01	   1.6276963321989912e-02	  -5.3668146001300299e-01	   8.4378493141221211e-01	  -4.2394602095662287e-01	  -9.0568745785455518e-01	   9.9172939900041013e-01	   1.2834640298148359e-01	  -6.4053954263009338e-01	   7.6792518797551546e-01	  -9.9929791022804360e-01	  -3.7465805928404664e-02	   4.5758068331921675e-01	  -8.8916810460852602e-01	   9.0814494000000001e-01	   4.7838828000000000e-01	   4.1911997000000001e-01	   1.8678417999999999e-01	   6.3443331999999997e-01	   4.0591326999999999e-01	
  -8.5094504327532594e-01	   5.2525473184461058e-01	   4.4821493334969248e-01	  -8.9392582104016372e-01	   8.8132491563523110e-02	   9.9610876109529600e-01	   5.9752273688677615e-01	   8.0185196819820581e-01	  -2.8593315780667289e-01	   9.5824956523168026e-01	  -9.3922586292541954e-01	   3.4329983747738813e-01	  -8.3648445853340858e-01	  -5.4799064830713151e-01	  -9.2963555173313073e-01	  -3.6848031284430605e-01	  -8.7282470663087142e-02	   9.9618360271334894e-01	   1.8450691999999999e-01	   5.8741968000000000e-01	   6.8900815000000004e-01	   7.0965964000000004e-01	   7.0029231999999997e-01	   9.8825742999999999e-01	
  -4.8675123991778213e-01	  -8.7354062895694884e-01	  -5.2614646087700334e-01	   8.5039396852670812e-01	   9.9895612433825065e-01	   4.5679991758991595e-02	   7.0382029626144105e-01	  -7.1037806171816520e-01	  -9.2739811409146989e-03	  -9.9995699571221464e-01	  -7.1687472856968426e-01	  -6.9720199622357759e-01	  -9.9982798654759597e-01	   1.8547164639921596e-02	  -9.6312950071506143e-01	  -2.6903822191717758e-01	   2.7795869694594705e-01	  -9.6059302662059298e-01	   5.3602978999999995e-01	   7.4793394000000002e-01	   5.1835478000000001e-01	   4.1316714999999998e-01	   1.1173928000000000e-02	   8.7182791000000003e-03	
   9.9068594603632976e-01	   1.3616664909625356e-01	   9.6291728734779547e-01	   2.6979677115703782e-01	   9.1721130150544461e-01	   3.9840108984626083e-01	  -9.9250998760517284e-01	  -1.2216351543721939e-01	   9.7015215099204055e-01	   2.4249701838479790e-01	  -9.3326141110731076e-01	  -3.5919790998555529e-01	   8.8239039214896597e-01	   4.7051800799033616e-01	  -9.6663109948223191e-01	  -2.5617243706880599e-01	  -9.9990029256004120e-01	  -1.4121081344715070e-02	   8.8883670000000004e-01	   7.9961996999999996e-01	   6.1830443000000002e-01	   8.2849834000000000e-01	   8.7569995000000000e-01	   1.3026741999999999e-01	
  -4.4721740439506580e-01	   8.9442528654222442e-01	  -5.9999318641228039e-01	  -8.0000511014545317e-01	   9.8387219535911552e-01	  -1.7887286881814829e-01	  -6.2863723518983838e-01	   7.7769867335162390e-01	  -2.0963045306575173e-01	  -9.7778068765314019e-01	   8.9220025204353304e-01	   4.5164002286495397e-01	  -9.1211014629489529e-01	   4.0994521710334009e-01	  -4.1445584612834357e-01	  -9.1006942131358248e-01	   9.7673087138372405e-01	  -2.1446865711798349e-01	   4.7622002000000002e-01	   4.7968434999999998e-01	   9.9388991999999998e-01	   5.4520647000000000e-01	   7.2729621000000000e-01	   5.9146546000000000e-01	
  -7.3305187182994769e-01	  -6.8017273777078868e-01	   7.4730093586780011e-02	   9.9720379718115348e-01	   6.2348980185831515e-01	  -7.8183148246836343e-01	   1.6459744012712225e-02	   9.9986452923735425e-01	  -9.9945815365407198e-01	   3.2915028397275739e-02	  -4.9361394733840283e-02	  -9.9878098335417365e-01	   9.9783320181121304e-01	  -6.5794387018825118e-02	   6.6801474809291150e-01	  -7.4414803388194473e-01	  -6.9214644040963247e-01	   7.2175709558567913e-01	   2.7321804000000002e-02	   6.0965994000000001e-01	   7.5720936000000005e-01	   6.9858421000000004e-01	   2.5439425000000002e-02	   7.6115032000000005e-01	
   8.3783083163359329e-01	  -5.4592993832923420e-01	   4.0392100487167693e-01	  -9.1479386848811728e-01	  -1.6099588878176746e-01	  -9.8695507688818784e-01	   8.9684473460288894e-01	  -4.4234547812210495e-01	   6.0866095596985270e-01	  -7.9343042585841450e-01	   1.9490401243695926e-01	  -9.8082232128758862e-01	  -2.5906368135573005e-01	  -9.6586024299709983e-01	   5.0991453024713129e-01	  -8.6022507045705632e-01	   9.9289380942996408e-01	  -1.1900371084825101e-01	   3.5806747999999999e-01	   8.6757947999999996e-01	   7.3205233999999997e-01	   4.9772812999999999e-01	   3.0142297000000001e-01	   8.2684687000000001e-01	
  -3.2969817608492297e-01	   9.4408639047826293e-01	  -7.8259822537255019e-01	  -6.2252712201456339e-01	   8.4574059111017752e-01	  -5.3359427709506746e-01	  -5.5067981813215527e-01	  -8.3471656141587158e-01	  -3.9350347580387290e-01	   9.1932312846478026e-01	   9.8406866311225061e-01	  -1.7778882495946674e-01	  -6.9031002906054162e-01	  -7.2351369287556277e-01	   9.6960267718448612e-01	  -2.4468479396292103e-01	  -6.0648641389458857e-01	  -7.9509384965630425e-01	   2.8106929000000003e-01	   8.4947523000000003e-01	   4.3426817000000000e-02	   9.4377274000000000e-01	   3.3963515000000000e-01	   1.8888384999999999e-01	
  -4.5296860317583076e-01	  -8.9152646878089759e-01	  -5.8963888907387352e-01	   8.0766699851592816e-01	   9.8714441109971307e-01	   1.5983088448294527e-01	  -9.6709921865693893e-01	   2.5439949149543950e-01	   8.7056179745372353e-01	  -4.9205909890392430e-01	  -7.1674004956321424e-01	   6.9734044867060541e-01	   5.1575568637171609e-01	  -8.5673570719051972e-01	   6.6486946252005585e-01	   7.4695956905865535e-01	   2.1126170189488575e-01	   9.7742953368131680e-01	   7.1930673000000001e-01	   9.8462707000000005e-01	   4.2269416999999998e-01	   9.3585585000000004e-01	   1.7765892000000000e-01	   5.4953971999999995e-01	
   6.8397538554022419e-01	   7.2950508701111993e-01	  -6.4355343950203453e-02	   9.9792704628397111e-01	  -7.7201032792005253e-01	   6.3560998543507241e-01	   3.0438199731089849e-01	   9.5255005102778101e-01	  -8.1470319942605640e-01	   5.7987817414086851e-01	  -8.0034397142466329e-01	  -5.9954109734379157e-01	   3.2748260631010506e-01	  -9.4485720749981095e-01	  -4.8670031389524299e-01	   8.7356900383099212e-01	   9.0307990181969344e-01	  -4.2947257296518121e-01	   8.5093138999999995e-01	   6.0786400999999997e-02	   5.4866034000000001e-02	   5.0547748000000003e-02	   5.9076693999999999e-02	   6.5202821000000000e-01	
  -9.2112365311488087e-01	   3.8927010631731884e-01	   6.9693756865540657e-01	  -7.1713180475885352e-01	  -3.6280770535086115e-01	   9.3186402921136657e-01	   0.0000000000000000e+00	   0.0000000000000000e+00	   0.0000000000000000e+00	   0.0000000000000000e+00	   0.0000000000000000e+00	   0.0000000000000000e+00	   0.0000000000000000e+00	   0.0000000000000000e+00	   0.0000000000000000e+00	   0.0000000000000000e+00	   0.0000000000000000e+00	   0.0000000000000000e+00	   9.1591657999999998e-01	   5.8931489000000004e-01	   3.8025431999999998e-01	   4.9310388999999999e-01	   8.6797665000000002e-01	   6.1651536000000000e-02	
   1.0962512789641796e-01	  -9.9397300332237093e-01	  -9.7596466266738802e-01	  -2.1792883522960316e-01	  -3.2360562983101160e-01	   9.4619205045364563e-01	  -1.8135713243044743e-01	  -9.8341730232724966e-01	  -9.3421918103321033e-01	   3.5669948386511280e-01	   5.2021175589785484e-01	   8.5403731126085514e-01	   7.4553095642072431e-01	  -6.6647099938286891e-01	  -9.9737154835101571e-01	   7.2456846052650625e-02	   9.5760895067578500e-01	   2.8807134113899985e-01	   4.3152274000000002e-01	   1.8600328999999999e-01	   1.7872371000000001e-01	   7.6912581000000002e-01	   2.8181739000000000e-01	   9.2094215999999995e-01	
   8.4125353283122717e-01	   5.4064081745552595e-01	   4.1541501300204137e-01	   9.0963199535444761e-01	  -1.4231483827303223e-01	   9.8982144188096910e-01	   0.0000000000000000e+00	   0.0000000000000000e+00	   0.0000000000000000e+00	   0.0000000000000000e+00	   0.0000000000000000e+00	   0.0000000000000000e+00	   0.0000000000000000e+00	   0.0000000000000000e+00	   0.0000000000000000e+00	   0.0000000000000000e+00	   0.0000000000000000e+00	   0.0000000000000000e+00	   9.7340895999999996e-02	   1.0425172000000001e-01	   5.1975826000000003e-01	   5.0688496000000005e-01	   9.8037342999999999e-01	   9.0469071999999995e-01	
  -6.0729772326174136e-01	   7.9447433899472508e-01	  -2.6237895064221084e-01	  -9.6496491452274691e-01	   9.2598200197538039e-01	   3.7756765223952460e-01	  -3.0263361408271466e-01	   9.5310696966669728e-01	  -8.1682579125446897e-01	  -5.7688441367531385e-01	   7.9703149664934070e-01	  -6.0393773962960129e-01	   3.3440874651697883e-01	   9.4242813532541725e-01	  -5.7343032490230983e-01	  -8.1925433320943220e-01	   9.4100773453211994e-01	   3.3838505219753334e-01	   9.6949507000000001e-01	   1.5785864999999999e-01	   6.0785133999999996e-01	   1.3009201999999999e-02	   1.5204972999999999e-01	   3.5381442000000002e-01	
  -5.2879164861706074e-01	  -8.4875166706926175e-01	  -4.4075878470570196e-01	   8.9762558659206715e-01	   9.9493077743102132e-01	  -1.0056216048048811e-01	   9.1766415209360130e-01	   3.9735689746414604e-01	   6.8421499207533631e-01	   7.2928036077995917e-01	   3.3809498901148594e-01	   9.4111199036316784e-01	  -6.3699689238694970e-02	   9.9796911254351639e-01	  -1.4799581071818935e-01	  -9.8898798779857078e-01	  -8.2251046900651625e-01	  -5.6874996999971850e-01	   9.0554630000000003e-01	   1.9606881000000001e-01	   5.0033925999999995e-01	   5.6229861000000003e-01	   7.6018459000000005e-01	   5.7854501999999997e-01	
   7.1180546459595084e-01	  -7.0237666573665636e-01	   1.3334038857314719e-02	  -9.9991109775207099e-01	  -6.9282298114840868e-01	  -7.2110770124346324e-01	   4.6542976864599928e-01	  -8.8508481540366035e-01	  -5.6675026091626313e-01	  -8.2388964173082524e-01	  -9.9299465428263145e-01	   1.1815928472243389e-01	  -3.5758828350269528e-01	   9.3387933883430363e-01	  -2.9036746882951464e-01	  -9.5691521727138440e-01	   9.5295837424521834e-01	   3.0310119919906348e-01	   5.6474228999999998e-01	   8.3179641000000004e-01	   8.2523579000000002e-01	   5.0489280999999997e-01	   8.3927484999999996e-02	   4.0613567000000000e-01	
   7.1510950135502227e-01	   6.9901244700775633e-01	   2.2763197856457286e-02	   9.9974088484134116e-01	  -6.8255314321826877e-01	   7.3083596427848407e-01	   0.0000000000000000e+00	   0.0000000000000000e+00	   0.0000000000000000e+00	   0.0000000000000000e+00	   0.0000000000000000e+00	   0.0000000000000000e+00	   0.0000000000000000e+00	   0.0000000000000000e+00	   0.0000000000000000e+00	   0.0000000000000000e+00	   0.0000000000000000e+00	   0.0000000000000000e+00	   1.5521019999999999e-01	   6.7690097000000005e-01	   3.9604307000000000e-01	   6.6065543000000004e-01	   6.6851232000000005e-01	   5.5394715000000005e-01	
  -9.0846527181946368e-01	   4.1796034488691391e-01	   6.5061830020402389e-01	  -7.5940491665489407e-01	  -2.7366299007166750e-01	   9.6182564317293728e-01	  -7.6099439980411820e-01	   6.4875844770358859e-01	   1.5822495306646023e-01	  -9.8740309105608759e-01	   5.2017779341842685e-01	   8.5405799758232837e-01	  -9.4992972845423296e-01	  -3.1246361548005447e-01	   4.2018167972064707e-01	  -9.0744000133735325e-01	   9.6249228882162863e-01	   2.7130903773907455e-01	   7.7568884999999999e-01	   5.9118263999999998e-01	   4.2215070999999998e-01	   5.1011287000000005e-01	   2.7775594999999997e-01	   2.5586123000000000e-01	
  -2.3732669987109267e-01	  -9.7142989326471541e-01	  -8.8735207505659264e-01	   4.6109250144928537e-01	   6.5851137906498713e-01	   7.5257076985618354e-01	   3.5189972277070264e-01	   9.3603770496380256e-01	  -7.5233317022780533e-01	   6.5878281775937375e-01	  -8.8139139083943974e-01	  -4.7238672309255048e-01	   1.3201039805003958e-01	  -9.9124833155303227e-01	   8.2577980793401273e-01	  -5.6399264960499718e-01	  -9.9281020771545914e-01	  -1.1969917065705563e-01	   2.2194174999999999e-01	   4.4229339000000001e-01	   2.9983010999999998e-01	   3.0589000999999999e-01	   5.5432308000000000e-02	   8.9776138999999999e-01	
   9.3756544296344546e-01	  -3.4780891328538172e-01	   7.5805791967848357e-01	  -6.5218723570208703e-01	   4.8389237554716708e-01	  -8.7512751578688197e-01	   9.6111935167426676e-01	  -2.7613328636228757e-01	   8.4750081632552576e-01	  -5.3079409032841296e-01	   6.6797951858613558e-01	  -7.4417965757566540e-01	   4.3651526734486512e-01	  -8.9969684970818975e-01	   8.0507067244163510e-01	  -5.9317890418858743e-01	   9.9715390894481182e-01	  -7.5392850298167252e-02	   6.9745040999999997e-01	   4.5628059999999998e-01	   8.3622041000000003e-01	   9.2224114000000001e-01	   1.3156071000000000e-02	   1.7719848999999999e-01	
   4.7245304461708174e-02	   9.9888331711282496e-01	  -9.9553576241264097e-01	   9.4385092877432811e-02	  -1.4131408485711616e-01	  -9.8996481221354315e-01	  -6.1058833096093224e-01	  -7.9194816124184741e-01	  -2.5436378018868622e-01	   9.6710861196047759e-01	   9.2121144296557889e-01	  -3.8906230522793639e-01	  -8.7059813465624347e-01	  -4.9199480478260071e-01	   7.6221637468564341e-01	  -6.4732232941640044e-01	  -8.1991123787967435e-01	  -5.7249066542487836e-01	   7.9897744000000004e-01	   1.0340134000000001e-02	   4.9272074999999999e-01	   7.2912332000000002e-01	   1.4542400999999999e-01	   5.8923868000000001e-01	
  -8.9508658140423558e-01	  -4.4589237691406958e-01	   6.0235997641984262e-01	   7.9822456665244690e-01	  -1.8324208273251011e-01	  -9.8306782020156269e-01	  -9.9369645753468838e-01	   1.1210419386896842e-01	   9.7486529943397748e-01	  -2.2279508064475170e-01	  -9.4374393170738469e-01	   3.3067717091672238e-01	   9.0072470408099714e-01	  -4.3439038601032604e-01	   9.3943077059449343e-01	   3.4273871572998044e-01	   8.3945795966195336e-01	   5.4342463503248561e-01	   8.4686607000000003e-01	   9.4159585999999995e-01	   5.3784703000000000e-01	   3.2934529000000001e-01	   9.4645277999999999e-02	   9.1787079999999999e-01	
   9.6697647104480511e-01	  -2.5486565960469304e-01	   8.7008699110852949e-01	  -4.9289819223010517e-01	   7.1573082528343146e-01	  -6.9837624940936971e-01	   6.0966807803688669e-02	   9.9813979398991404e-01	  -9.9256609669245621e-01	   1.2170679396279299e-01	  -1.8199398070270134e-01	  -9.8329964455804864e-01	   9.7037491260659647e-01	  -2.4160407484920485e-01	   3.1334502563380984e-01	   9.4963934991687615e-01	  -1.9543808831205389e-01	  -9.8071604128663559e-01	   8.6386870000000004e-01	   2.1529398999999999e-01	   9.3838275000000004e-01	   4.2993400999999998e-01	   5.0790226000000005e-01	   1.9699185000000000e-01	
   1.3252253894425822e-01	   9.9117999206590501e-01	  -9.6487555334353514e-01	   2.6270737819864687e-01	  -3.8825805513292089e-01	  -9.2155069454935679e-01	   9.8790982587128040e-01	   1.5502959700320601e-01	   9.5193164810604702e-01	   3.0631052436066403e-01	   8.9293543157233146e-01	   4.5018475656416240e-01	   8.1234772533179012e-01	   5.8317336457374880e-01	  -2.2741916355176091e-02	   9.9974136917529532e-01	   2.8458255310006031e-01	   9.5865153756255528e-01	   8.7062484999999995e-02	   6.5568077000000002e-01	   3.3139590000000002e-01	   1.9491269000000000e-01	   9.5807690000000001e-01	   4.5322902999999998e-01	
  -9.8272837898061371e-01	  -1.8505386552605488e-01	   9.3151013370772962e-01	   3.6371537058503278e-01	  -8.4811450842460978e-01	  -5.2981296756467045e-01	  -6.0120616074423749e-01	  -7.9909395710590503e-01	  -2.7710230456634805e-01	   9.6084042005112325e-01	   9.3439738606766654e-01	  -3.5623240294772751e-01	  -8.4642862560803778e-01	  -5.3250218943332828e-01	   4.4294693010038405e-01	   8.9654783314368980e-01	   7.3869778146230203e-01	  -6.7403678509609033e-01	   1.7113137000000000e-01	   8.0712225999999998e-01	   5.0445740999999999e-01	   7.1146816000000002e-01	   4.1467701000000001e-01	   7.5351853999999996e-01	
   7.4938898006623766e-01	  -6.6213001484246581e-01	   1.2316768688943205e-01	  -9.9238587298807657e-01	  -5.6478796555586008e-01	  -8.2523605953888890e-01	   0.0000000000000000e+00	   0.0000000000000000e+00	   0.0000000000000000e+00	   0.0000000000000000e+00	   0.0000000000000000e+00	   0.0000000000000000e+00	   0.0000000000000000e+00	   0.0000000000000000e+00	   0.0000000000000000e+00	   0.0000000000000000e+00	   0.0000000000000000e+00	   0.0000000000000000e+00	   3.9965740999999999e-01	   8.9580594000000002e-01	   2.1821591000000001e-01	   5.0154029000000000e-01	   5.6356702000000003e-01	   5.4666499000000002e-01	
   6.6532570016559367e-01	   7.4655322161193738e-01	  -1.1468342539832498e-01	   9.9340208975968380e-01	  -8.1792936076665212e-01	   5.7531866021871370e-01	  -1.7860776021687211e-01	   9.8392035652806387e-01	  -9.3619853598062464e-01	  -3.5147162222252754e-01	   5.1303240747650003e-01	  -8.5836923807815158e-01	   7.5293539754452976e-01	   6.5809443632693088e-01	  -8.5338124509689095e-01	   5.2128730131941647e-01	   6.1571657885429321e-01	  -7.8796769890901297e-01	   5.6681848999999995e-01	   1.1749756000000000e-01	   5.5095559999999999e-01	   1.9165251000000000e-01	   5.8420760000000005e-01	   9.1905554000000000e-01	
  -7.3426930070700325e-01	   6.7885830188578267e-01	   7.8302811921503152e-02	  -9.9692962120963469e-01	   6.1927859880101499e-01	   7.8517132975360959e-01	   9.9154685433372425e-01	   1.2974912585792750e-01	   9.6633032867820734e-01	   2.5730467519395694e-01	   9.2477674096257645e-01	   3.8051015672992983e-01	   8.6758860824666462e-01	   4.9728262270123164e-01	  -8.1614368660092984e-01	   5.7784901386213616e-01	  -6.3998114409877516e-01	   7.6839061368422690e-01	   7.4694870999999996e-01	   5.5798236000000001e-01	   4.6047434999999998e-02	   6.0392290999999998e-01	   7.5733245000000005e-01	   8.3761284000000003e-01	
  -4.2290376522037293e-01	  -9.0617459982192816e-01	  -6.4230481072486345e-01	   7.6644930042351622e-01	   9.6617001096978006e-01	   2.5790600982267758e-01	  -9.7681362011842809e-01	  -2.1409145604421292e-01	   9.0832969689773768e-01	   4.1825490042994590e-01	  -7.9772401885707955e-01	  -6.0302271079828307e-01	   6.5012567653267206e-01	   7.5982669386705248e-01	   2.1909391836046813e-01	   9.7570377417403509e-01	   6.0710239737278482e-01	   7.9462360844881597e-01	   6.3666984000000004e-01	   9.7774329000000004e-01	   6.3712626000000006e-01	   5.4484125999999999e-01	   6.1690202999999999e-01	   9.7614727999999995e-01	
   8.6921699028925914e-01	   4.9443080789174326e-01	   5.1107635241503613e-01	   8.5953531748389589e-01	   1.9255507419161669e-02	   9.9981459552960650e-01	  -2.0361078214632372e-01	   9.7905191353357879e-01	  -9.1708529878752454e-01	  -3.9869105175285380e-01	   5.7706769210836917e-01	  -8.1669631976930113e-01	   6.8209089050440652e-01	   7.3126740464135676e-01	  -6.6105537982403395e-01	   7.5033711410652082e-01	   3.0709147732869491e-01	  -9.5168000113067397e-01	   9.9513551000000000e-01	   6.9356872000000003e-01	   1.6320981000000001e-01	   8.8698633999999998e-01	   7.3068392000000004e-01	   2.2863138999999999e-01	
  -1.9617412426718234e-01	   9.8056907608184551e-01	  -9.2303142593600818e-01	  -3.8472455956767226e-01	   5.5832388757535256e-01	  -8.2962306896731430e-01	   9.4059133190229249e-01	   3.3954078746193583e-01	   7.6942410729945698e-01	   6.3873824302795090e-01	   5.0683595986276497e-01	   8.6204252203124510e-01	   1.8402691378713279e-01	   9.8292120487960943e-01	  -5.1746287708288741e-01	   8.5570565666068876e-01	   1.4842351542441781e-01	   9.8892388992735814e-01	   8.2359053999999998e-01	   5.6726907999999998e-01	   6.8758925000000004e-01	   3.9869599000000000e-01	   6.2563318000000001e-01	   1.2653956999999999e-01	
  -1.0000000000000000e+00	   1.6088275864563740e-13	   1.0000000000000000e+00	  -3.2176551729127480e-13	  -1.0000000000000000e+00	   4.8353645435661231e-13	   3.6654819499464986e-01	  -9.3039906531883620e-01	  -7.3128484149232831e-01	  -6.8207219603465752e-01	  -9.0265047234657303e-01	   4.3037440069375482e-01	   6.9555038792919341e-02	   9.9757811552705755e-01	  -3.6654819499449937e-01	   9.3039906531889560e-01	  -3.6654819499479957e-01	  -9.3039906531877725e-01	   4.0955842999999997e-01	   6.8750612000000000e-01	   1.1880621000000000e-01	   7.5589958999999995e-01	   8.9126764999999997e-01	   9.3017773999999998e-01	
  -2.3918475057841605e-02	  -9.9971391235238261e-01	  -9.9885581310181482e-01	   4.7823264555155426e-02	   7.1700690761953303e-02	   9.9742619323148851e-01	  -9.3985227535774707e-01	  -3.4158117703536539e-01	   7.6664459899026871e-01	   6.4207169291213118e-01	  -5.0121306614571581e-01	  -8.6532390601716902e-01	   1.7548788232189988e-01	   9.8448159107124755e-01	  -3.1900362167375662e-01	   9.4775349609433079e-01	   3.6396328808615691e-01	   9.3141329436803355e-01	   4.1521881999999999e-01	   4.1613400000000000e-01	   6.9610092999999995e-01	   2.3216843000000001e-01	   6.1030793999999999e-01	   5.8259728000000000e-01	
   9.9976285119535990e-01	   2.1777083590892130e-02	   9.9905151726055064e-01	   4.3543838363100003e-02	   9.9786633557955684e-01	   6.5289940396873372e-02	  -5.7263306765249766e-01	   8.1981178927293430e-01	  -3.4418273966178015e-01	  -9.3890267957808671e-01	   9.6681390374362985e-01	   2.5548165399496531e-01	  -7.6307648343782253e-01	   6.4630819306594478e-01	  -5.9035037826880199e-01	   8.0714709370590088e-01	  -5.5464415854121085e-01	  -8.3208765006825591e-01	   6.9796999000000004e-01	   5.5496045000000005e-01	   8.0064700000000000e-01	   2.4233271000000001e-01	   1.6095793000000000e-01	   8.3131217999999996e-01	
   1.5074249841741385e-02	   9.9988637704076599e-01	  -9.9954553398341750e-01	   3.0145074121732264e-02	  -4.5209048056666840e-02	  -9.9897754828314833e-01	   9.8162487692428402e-01	   1.9082086102778240e-01	   9.2717479799323155e-01	   3.7462900844196562e-01	   8.3865081701052357e-01	   5.4466944758043967e-01	   7.1930621206757928e-01	   6.9469315044916813e-01	  -1.7600192075124355e-01	   9.8438982313505918e-01	   2.0559643804249411e-01	   9.7863686046676113e-01	   4.3536578999999997e-01	   4.5170589999999999e-01	   4.0073591999999998e-02	   2.3765174999999999e-01	   4.5646409999999998e-01	   4.3854770999999998e-01	
  -9.9924261952412352e-01	   3.8912560010460520e-02	   9.9697162534686457e-01	  -7.7766176794484443e-02	  -9.9319045748152457e-01	   1.1650199641053387e-01	   1.3614254646997961e-01	  -9.9068925856732160e-01	  -9.6293041408133884e-01	  -2.6974991684362248e-01	  -3.9833414376283038e-01	   9.1724037738900965e-01	   8.5446996472571757e-01	   5.1950079824927220e-01	  -9.7489179537627604e-02	   9.9523658487471223e-01	  -1.7458968998906668e-01	  -9.8464127485573216e-01	   9.4103612999999997e-01	   1.7656638999999999e-01	   8.8424137000000003e-01	   2.6206210000000002e-01	   1.8693171000000000e-01	   1.4419333000000001e-01	
  -8.1107354781964781e-03	  -9.9996710744404127e-01	  -9.9986843194000541e-01	   1.6220937390751790e-02	   2.4330072207125443e-02	   9.9970397997927174e-01	   0.0000000000000000e+00	   0.0000000000000000e+00	   0.0000000000000000e+00	   0.0000000000000000e+00	   0.0000000000000000e+00	   0.0000000000000000e+00	   0.0000000000000000e+00	   0.0000000000000000e+00	   0.0000000000000000e+00	   0.0000000000000000e+00	   0.0000000000000000e+00	   0.0000000000000000e+00	   4.7058146000000001e-01	   7.1469884999999997e-02	   4.9976246000000002e-01	   4.8757648999999997e-01	   9.3300770000000000e-01	   2.6871382999999999e-01	
   9.3002813700439457e-01	   3.6748831869888748e-01	   7.2990467123972980e-01	   6.8354895282080708e-01	   4.2763562616338735e-01	   9.0395119958759262e-01	   8.0567549660001889e-02	   9.9674915096115491e-01	  -9.8701773988356623e-01	   1.6061127343725512e-01	  -2.3961075120674599e-01	  -9.7086903746393050e-01	   9.4840803768972648e-01	  -3.1705235221572203e-01	  -2.9136358153795777e-01	   9.5661238929535819e-01	   4.4122375776455897e-01	  -8.9739712256287174e-01	   3.4023712999999997e-02	   3.0911512000000002e-01	   2.0495543999999999e-01	   5.8442808999999996e-01	   6.3459217999999995e-01	   8.0661643999999999e-01	
  -7.4851074817108254e-01	   6.6312265824081607e-01	   1.2053668025526766e-01	  -9.9270887409806075e-01	   5.6806474673122465e-01	   8.2298386589360883e-01	   9.9584349770148506e-01	   9.1080887598180296e-02	   9.8340854382865528e-01	   1.8140461935905533e-01	   9.6279851021021945e-01	   2.7022033368527609e-01	   9.3418472815039244e-01	   3.5678970513536024e-01	  -8.0579736182488459e-01	   5.9219136406744055e-01	  -6.8500176122680800e-01	   7.2854141070784095e-01	   2.4834043000000000e-01	   9.5582988000000002e-01	   1.0295743000000000e-01	   8.2718659000000005e-01	   9.1882069000000000e-01	   4.8950892000000001e-01	
  -7.9015501237578178e-01	  -6.1290705365285869e-01	   2.4868988716514362e-01	   9.6858316112855691e-01	   3.9714789063437050e-01	  -9.1775462568415866e-01	  -8.1437694025643981e-01	  -5.8033628111514712e-01	   3.2641960164288197e-01	   9.4522496986870919e-01	   2.8271974740512751e-01	  -9.5920255651618280e-01	  -7.8690048732660456e-01	   6.1707991625489833e-01	   2.8779182112073698e-01	   9.5769299240205874e-01	   9.9917622149302043e-01	   4.0581749628750469e-02	   9.0086695999999999e-01	   7.2856484999999999e-02	   2.8246363000000002e-01	   7.4593138000000003e-01	   9.7666052000000003e-01	   1.6481912000000001e-01	
   7.3464807082162453e-01	  -6.7844838568461896e-01	   7.9415575923869094e-02	  -9.9684159539050143e-01	  -6.1796307153030638e-01	  -7.8620712425214601e-01	  -8.7923271371331091e-01	   4.7639252212469391e-01	   5.4610032972734601e-01	  -8.3771978004084624e-01	  -8.1065836018505352e-02	   9.9670874894856865e-01	  -4.0354885974336785e-01	  -9.1495809619885193e-01	  -3.2271887934502241e-01	   9.4649486259265714e-01	  -9.6913435452046826e-01	   2.4653316792714811e-01	   8.5366217000000000e-01	   8.4202984999999997e-01	   9.1382452999999997e-01	   3.6010881000000000e-01	   5.4081407000000004e-01	   6.1906989999999995e-01	
   6.6591522501168110e-01	   7.4602742114324605e-01	  -1.1311382619528425e-01	   9.9358203603097772e-01	  -8.1656366305721073e-01	   5.7725538903901963e-01	   2.4054826353824307e-01	   9.7063717882056011e-01	  -8.8427306581747189e-01	   4.6697017578188971e-01	  -6.6596896449030585e-01	  -7.4597944900359670e-01	   5.6387770986046204e-01	  -8.2585829796795074e-01	  -5.6393720034101968e-01	   8.2581767604691814e-01	   8.8430670242149645e-01	  -4.6690647463107526e-01	   2.9901294000000000e-01	   9.1321580999999996e-01	   4.0650281999999999e-01	   4.0136907999999999e-01	   8.5502993000000005e-01	   6.2559485999999997e-01	
  -4.6322164228761076e-01	   8.8624246688836161e-01	  -5.7085142023273749e-01	  -8.2105338195410071e-01	   9.9208310705245817e-01	  -1.2558307489921103e-01	   9.8701682744664498e-01	  -1.6061688061084906e-01	   9.4840443532568053e-01	  -3.1706312786979357e-01	   8.8516544633631511e-01	  -4.6527640452985808e-01	   7.9894194589084588e-01	  -6.0140815349989118e-01	  -3.1486205527887035e-01	   9.4913744323230953e-01	  -5.9955305627181488e-01	   8.0033501280096819e-01	   2.5779269999999999e-01	   3.6880628999999998e-01	   7.8096018000000000e-01	   6.5874904000000001e-01	   4.3351130999999998e-01	   2.9978302000000001e-01	
  -9.5215187317012717e-01	  -3.0562527778084397e-01	   8.1318637916276393e-01	   5.8200336145434206e-01	  -5.9640199514239034e-01	  -8.0268590381928118e-01	  -9.7326384962300727e-01	  -2.2968996281292828e-01	   8.9448504196599121e-01	   4.4709787485415192e-01	  -7.6787606112502893e-01	  -6.4059843486470591e-01	   6.0020698060180222e-01	   7.9984472270364315e-01	   8.5649593881914210e-01	   5.1615376273579205e-01	   9.9689405619548821e-01	   7.8754306054378637e-02	   7.9043790999999997e-01	   7.2899208999999998e-01	   6.2393421999999998e-01	   3.0957040000000002e-01	   7.9408104000000002e-01	   8.3602018000000000e-01	
  -1.2468611624047324e-01	  -9.9219623684877334e-01	  -9.6890674483373440e-01	   2.4742619064217256e-01	   3.6630455426550834e-01	   9.3049501531407852e-01	   0.0000000000000000e+00	   0.0000000000000000e+00	   0.0000000000000000e+00	   0.0000000000000000e+00	   0.0000000000000000e+00	   0.0000000000000000e+00	   0.0000000000000000e+00	   0.0000000000000000e+00	   0.0000000000000000e+00	   0.0000000000000000e+00	   0.0000000000000000e+00	   0.0000000000000000e+00	   5.9877661000000004e-01	   9.3835318000000001e-02	   6.8551991999999995e-01	   2.2460580999999999e-01	   1.6377699000000001e-01	   5.3048331999999998e-01	
   9.9341011979743388e-01	   1.1461384682510248e-01	   9.7372733223190389e-01	   2.2771711060993957e-01	   9.4121105172762887e-01	   3.3781911743678866e-01	   2.3947837850219611e-01	   9.7090169751111199e-01	  -8.8530021245991775e-01	   4.6501992840998163e-01	  -6.6349889723729771e-01	  -7.4817726065745260e-01	   5.6751293236315115e-01	  -8.2336448283890495e-01	   1.2662146623599135e-01	   9.9195110982762036e-01	   3.4917902311753235e-01	  -9.3705603344447108e-01	   5.2773460999999999e-01	   7.2293697000000004e-02	   4.6384930000000002e-01	   6.2704190999999998e-01	   6.2004457999999996e-01	   3.2874437000000001e-01	
   3.0555483198012823e-02	   9.9953307221248855e-01	  -9.9813272489307192e-01	   6.1082431987693663e-02	  -9.1552338607726852e-02	  -9.9580026576390113e-01	   9.9376188356502027e-01	  -1.1152272760878443e-01	   9.7512536245339376e-01	  -2.2165407169762860e-01	   9.4432295024239499e-01	  -3.2902000797139846e-01	   9.0173894499972507e-01	  -4.3228101400684121e-01	   1.4183552908442137e-01	   9.8989023769776729e-01	  -8.1105780012228276e-02	   9.9670549935706088e-01	   9.7048981999999995e-01	   5.7746900000000001e-01	   2.8890013999999999e-02	   1.8641483000000000e-01	   3.9677438999999998e-01	   9.5897284999999999e-01	
  -9.9963454741388202e-01	   2.7032787807460160e-02	   9.9853845676671371e-01	  -5.4045817210491891e-02	  -9.9671252919681808e-01	   8.1019344246185870e-02	  -9.9897311404518885e-01	  -4.5306924579562965e-02	   9.9589456517028363e-01	   9.0520799070113039e-02	  -9.9077067601248603e-01	  -1.3554876448629635e-01	   9.8361196987141641e-01	   1.8029834365759367e-01	   9.9983280921556661e-01	   1.8285338829465026e-02	   9.9738326425883073e-01	  -7.2295395264147605e-02	   6.4465114000000001e-01	   4.5263924000000000e-01	   8.1888753000000003e-01	   5.5387560999999996e-01	   1.9858390000000001e-01	   4.9543859000000001e-01	
   3.6940346470874430e-01	  -9.2926911078609276e-01	  -7.2708216052235097e-01	  -6.8655045834239314e-01	  -9.0657680315849598e-01	   4.2204087476797986e-01	  -7.7450854398065361e-01	   6.3256344764850903e-01	   1.9972696939806392e-01	  -9.7985158962725816e-01	   4.6512805545632707e-01	   8.8524340835016435e-01	  -9.2021827539012968e-01	  -3.9140557691225536e-01	   3.0171553291913727e-01	   9.5339799517060086e-01	  -8.7392781210509340e-01	   4.8605573675166575e-01	   1.4127588000000000e-02	   2.8714867999999999e-01	   4.8197094000000001e-01	   3.4429989000000000e-01	   8.2718961000000002e-01	   4.8799459000000001e-01	
   9.8781893243811458e-01	  -1.5560770134162252e-01	   9.5157248656635285e-01	  -3.0742446683686109e-01	   8.9214370319679859e-01	  -4.5175171593066760e-01	   9.2382272666950971e-01	  -3.8282054501935014e-01	   7.0689686062217538e-01	  -7.0731663944976775e-01	   3.8227204383868002e-01	  -9.2404982793104740e-01	  -5.9365688502541506e-04	  -9.9999982378573593e-01	   8.5299975458393507e-01	  -5.2191131304058413e-01	   9.7213940465755144e-01	   2.3440345115219918e-01	   4.8467873000000000e-01	   2.8297091000000002e-01	   6.3167496000000001e-01	   5.1219903000000000e-01	   5.0934820000000003e-01	   4.0371321999999998e-01	
  -2.2098809704584710e-01	   9.7527650487646589e-01	  -9.0232852192811053e-01	  -4.3104899781235007e-01	   6.1979582298801728e-01	  -7.8476310935632443e-01	  -7.6714772700107636e-01	  -6.4147047083796616e-01	   1.7703127008583600e-01	   9.8420522728331195e-01	   4.9552945409215055e-01	  -8.6859113518797515e-01	  -9.3731985882359159e-01	   3.4847020282216717e-01	   7.9514159512332727e-01	  -6.0642381525194966e-01	  -4.5608056243729772e-01	  -8.8993849257512070e-01	   6.0987163000000000e-01	   3.9098449000000002e-01	   5.1526878999999998e-02	   8.2425678999999996e-01	   6.1994216999999996e-01	   1.3545753999999999e-01	
  -7.9133526042576074e-01	  -6.1138245444802675e-01	   2.5242298878621311e-01	   9.6761698762074000e-01	   3.9183283728858787e-01	  -9.2003642733446978e-01	  -9.2599330778143174e-01	   3.7753992364252376e-01	   7.1492721211199461e-01	  -6.9919888542657949e-01	  -3.9804232015165381e-01	   9.1736705378397387e-01	   2.2241837236457940e-02	  -9.9975261973967688e-01	   9.6359244053441762e-01	   2.6737540751708039e-01	   5.0194987019704407e-01	   8.6489671511063715e-01	   3.8524638000000000e-01	   8.6353519000000001e-01	   1.4944825000000000e-01	   9.8490493000000001e-01	   4.6037586000000003e-01	   2.1280705999999999e-01	
   7.6080123185430215e-01	  -6.4898496562630503e-01	   1.5763702878204724e-01	  -9.8749712260682965e-01	  -5.2094034048783411e-01	  -8.5359308903740516e-01	   7.1939302948026573e-01	   6.9460324584269362e-01	   3.5052661729589041e-02	   9.9938546662720240e-01	  -6.6895974845427375e-01	   7.4329863106829064e-01	  -9.9754262181134201e-01	   7.0062241398301639e-02	   9.9810216664312490e-01	   6.1579744578064685e-02	   9.6528039388843592e-02	  -9.9533026559617177e-01	   8.3875074000000005e-01	   9.5058485999999998e-01	   1.3102269999999999e-01	   3.1380798999999998e-01	   1.2598856999999999e-01	   3.9542255999999998e-01	
   5.2094034048793025e-01	   8.5359308903734643e-01	  -4.5724232330463849e-01	   8.8934214888251895e-01	  -9.9733228366355164e-01	   7.2995314660907556e-02	   9.6366391690142172e-01	  -2.6711768054962182e-01	   8.5729628947558034e-01	  -5.1482334062414259e-01	   6.8862708362076530e-01	  -7.2511567332664906e-01	   4.6991385589719614e-01	  -8.8271227930500051e-01	   7.3002121506340223e-01	   6.8342448416584678e-01	   2.7400160290971681e-01	   9.6172923507757935e-01	   8.0138688999999996e-01	   2.9338744000000000e-01	   3.7903379999999998e-01	   1.5621023000000001e-01	   5.4551992000000005e-01	   9.3287514000000005e-01	
