   4.1865973753741076e-01	  -9.0814317382508924e-01	  -6.4944804833021264e-01	  -7.6040596560000617e-01	  -9.6245523645363174e-01	   2.7144044986512933e-01	
  -2.4646272445243750e-01	  -9.6915227155255734e-01	  -8.7851225091096374e-01	   4.7771981851222367e-01	   6.7950377010115715e-01	   7.3367201556166350e-01	
  -9.7296518832490742e-01	  -2.3095181815235261e-01	   8.9332251538424534e-01	   4.4941615848516708e-01	  -7.6537823050651677e-01	  -6.4358073640120184e-01	
  -7.9224218004676683e-01	   6.1020679130500199e-01	   2.5529534369050749e-01	  -9.6686311724563456e-01	   3.8773070076445471e-01	   9.2177269632198633e-01	
   3.9371082213761971e-01	   9.1923434908173418e-01	  -6.8998357706343916e-01	   7.2382502262821857e-01	  -9.3701882491182431e-01	  -3.4927885959625993e-01	
   8.8343629699863802e-01	  -4.6855128763597925e-01	   5.6091938170933164e-01	  -8.2787042900614649e-01	   1.0763678598547612e-01	  -9.9419028475574878e-01	
  -4.3784378010676267e-01	  -8.9905106875072505e-01	  -6.1658564844364172e-01	   7.8728783690168480e-01	   9.7778016225504971e-01	   2.0963290366850479e-01	
  -9.2472629432420561e-01	   3.8063273714359169e-01	   7.1023743882915480e-01	  -7.0396220103454599e-01	  -3.8882417547339199e-01	   9.2131197787038288e-01	
   6.2125232021216925e-01	   7.8361058864144784e-01	  -2.2809110926199272e-01	   9.7363979267264633e-01	  -9.0465658190972997e-01	   4.2614137185610601e-01	
   9.8350507487239491e-01	   1.8088053433204174e-01	   9.3456446459951015e-01	   3.5579384692238697e-01	   8.5479271258564693e-01	   5.1896957378103747e-01	
  -9.4853644194713771e-01	  -3.1666799380149585e-01	   7.9944276340347153e-01	   6.0074226423801824e-01	  -5.6806474673109542e-01	  -8.2298386589369810e-01	
   3.4248209437159810e-01	   9.3952435574328974e-01	  -7.6541203006968750e-01	   6.4354053813617662e-01	  -8.6676192460256452e-01	  -4.9872213311548363e-01	
   8.2864586050658406e-01	  -5.5977320216789828e-01	   3.7330792426939441e-01	  -9.2770749359788840e-01	  -2.0996572822630680e-01	  -9.7770874649375861e-01	
  -8.8035646287309055e-01	  -4.7431265877855366e-01	   5.5005500344483871e-01	   8.3512842915643726e-01	  -8.8132491563596663e-02	  -9.9610876109528956e-01	
  -5.1927186729426700e-01	   8.5460910821072178e-01	  -4.6071345567345029e-01	  -8.8754893485453956e-01	   9.9774294012456111e-01	   6.7149277223187268e-02	
   8.7324535101593204e-01	  -4.8728077832914940e-01	   5.2511488614187674e-01	  -8.5103134863070928e-01	   4.3862915129377587e-02	  -9.9903755919202208e-01	
   9.9711252358819169e-02	  -9.9501641501687588e-01	  -9.8011533230607173e-01	  -1.9842866571783052e-01	  -2.9516830683945644e-01	   9.5544527349164721e-01	
  -2.6996757966533930e-01	   9.6286941270851401e-01	  -8.5423501185927742e-01	  -5.1988704976540845e-01	   7.3119909689942231e-01	  -6.8216411565947177e-01	
   3.7983979894969433e-01	  -9.2505228345961932e-01	  -7.1144345426771161e-01	  -7.0274334673451488e-01	  -9.2030887621594193e-01	   3.9119250038587150e-01	
  -8.9077857601812638e-01	  -4.5443759583370635e-01	   5.8697294298576186e-01	   8.0960654901169959e-01	  -1.5494726860992536e-01	  -9.8792274189347606e-01	
   2.3634443853288392e-01	  -9.7166934004041516e-01	  -8.8828261274915177e-01	  -4.5929728922293955e-01	  -6.5622574927032740e-01	   7.5456462015827208e-01	
   7.8963686859937010e-01	   6.1357445819442402e-01	   2.4705276850283789e-01	   9.6900202764240029e-01	  -3.9947291960059800e-01	   9.1674499535354659e-01	
  -9.2671995496194781e-01	  -3.7575274460118779e-01	   7.1761974984934906e-01	   6.9643513310728200e-01	  -4.0334512955843871e-01	  -9.1504792577300909e-01	
   4.7734889271105491e-01	   8.7871385252966727e-01	  -5.4427606925505956e-01	   8.3890616902980375e-01	  -9.9696805068711114e-01	  -7.7811990779967533e-02	
   3.3141756821861490e-01	  -9.4348417870998758e-01	  -7.8032479095211948e-01	  -6.2537446432160226e-01	  -8.4864425749471528e-01	   5.2896401032701956e-01	
  -9.9806011513151327e-01	  -6.2257582539562283e-02	   9.9224798683265913e-01	   1.2427361999449044e-01	  -9.8258616482291883e-01	  -1.8580750441946028e-01	
  -1.7267426075664738e-01	   9.8497898438095899e-01	  -9.4036719934429069e-01	  -3.4016103597763081e-01	   4.9742868272979568e-01	  -8.6750487352965355e-01	
   9.9865948268045857e-01	  -5.1761352884162885e-02	   9.9464152469520228e-01	  -1.0338393178827754e-01	   9.8795689832876787e-01	  -1.5472933479014414e-01	
   2.7235874307189382e-02	  -9.9962903476775977e-01	  -9.9851641430144600e-01	  -5.4451541489503492e-02	  -8.1626809414347731e-02	   9.9666296408807820e-01	
  -8.6676192460256474e-01	  -4.9872213311548325e-01	   5.0255246788148444e-01	   8.6454671188214549e-01	  -4.4247639468828594e-03	  -9.9999021068409188e-01	
   6.1188640126875704e-01	   7.9094565675675188e-01	  -2.5119006388473919e-01	   9.6793778302408495e-01	  -9.1928596971856158e-01	   3.9359027665658103e-01	
   1.4309787493653683e-01	  -9.8970854204086123e-01	  -9.5904599637729449e-01	  -2.8325037834517075e-01	  -4.1757276303250568e-01	   9.0864348760853331e-01	
   4.9766682941728124e-01	   8.6736827639575953e-01	  -5.0465545379550136e-01	   8.6332084010201937e-01	  -9.9996738869437418e-01	  -8.0759858688884602e-03	
  -8.3346840164204772e-01	  -5.5256712122985585e-01	   3.8933915307149963e-01	   9.2109447066279115e-01	   1.8446463842770505e-01	  -9.8283915121943333e-01	
   3.7943205797362362e-01	   9.2521960278730619e-01	  -7.1206262676380150e-01	   7.0211595592625242e-01	  -9.1979083373181048e-01	  -3.9240899860087430e-01	
   9.8050603186704977e-01	  -1.9648898562599404e-01	   9.2278415705533579e-01	  -3.8531727120345038e-01	   8.2908483234116626e-01	  -5.5912283156907516e-01	
  -9.8950639945105678e-01	  -1.4448904956918204e-01	   9.5824582910918887e-01	   2.8594567839861318e-01	  -9.0687436085059525e-01	  -4.2140110777242196e-01	
  -5.5889757340712032e-01	   8.2923669868116212e-01	  -3.7526700487926501e-01	  -9.2691675734606593e-01	   9.7836921022067869e-01	   2.0686635418106397e-01	
   4.0599491025150625e-01	  -9.1387533769648877e-01	  -6.7033626569974269e-01	  -7.4205747141830192e-01	  -9.5030113431370034e-01	   3.1133222467662164e-01	
  -1.2053668025539298e-01	   9.9270887409804554e-01	  -9.7094181742601826e-01	  -2.3931566428769455e-01	   3.5460488704273324e-01	  -9.3501624268533989e-01	
   8.8735207505658442e-01	  -4.6109250144930103e-01	   5.7478741021445268e-01	  -8.1830277590813694e-01	   1.3272552728380510e-01	  -9.9115283100399598e-01	
  -3.5188101513183612e-01	  -9.3604473781427167e-01	  -7.5235950237957705e-01	   6.5875274510179860e-01	   8.8136306601465342e-01	   4.7243956847966251e-01	
  -9.1631690448700209e-01	   4.0045390565127248e-01	   6.7927333889728359e-01	  -7.3388536643220803e-01	  -3.2854238191081586e-01	   9.4448922878366781e-01	
   8.4207605877276626e-01	   5.3935879638856787e-01	   4.1818417751655068e-01	   9.0836225905461643e-01	  -1.3779029068423054e-01	   9.9046142569670792e-01	
  -6.0021428054843540e-01	  -7.9983924473966894e-01	  -2.7948563485144817e-01	   9.6014987367164872e-01	   9.3571681904040449e-01	  -3.5275208654933138e-01	
  -9.7508227002094505e-01	  -2.2184356355504392e-01	   9.0157086661839836e-01	   4.3263145108157602e-01	  -7.8312926439309238e-01	  -6.2185895125111290e-01	
  -4.9528145770971871e-01	   8.6873256969503343e-01	  -5.0939255529787220e-01	  -8.6053426695693191e-01	   9.9986683237853602e-01	  -1.6319237399846413e-02	
   7.6110425866080711e-01	  -6.4862956103494329e-01	   1.5855938510323359e-01	  -9.8734944239397049e-01	  -5.1974381215538712e-01	  -8.5432216974990516e-01	
  -9.9986038118585729e-01	   1.6709821509286321e-02	   9.9944156373025561e-01	  -3.3414977007645313e-02	  -9.9874366458278796e-01	   5.0110801787075478e-02	
   9.2425385111550218e-01	  -3.8177849428453042e-01	   7.0849036260367360e-01	  -7.0572048723110992e-01	   3.8539604111382386e-01	  -9.2275126198439406e-01	
  -6.1499844401802206e-01	  -7.8852832153031249e-01	  -2.4355382771082359e-01	   9.6988738161056953e-01	   9.1456889417160192e-01	  -4.0443013959611518e-01	
  -7.4851074817108110e-01	   6.6312265824081773e-01	   1.2053668025526325e-01	  -9.9270887409806130e-01	   5.6806474673122986e-01	   8.2298386589360528e-01	
   8.5798341323495331e-01	  -5.1367739157344605e-01	   4.7227107477260127e-01	  -8.8145336344762570e-01	  -4.7581915823879863e-02	  -9.9886733918300141e-01	
  -9.1809150479443991e-01	   3.9636850130185780e-01	   6.8578402235143820e-01	  -7.2780510762667916e-01	  -3.4113346529479205e-01	   9.4001487161425634e-01	
   8.9391859651918848e-01	   4.4822934174054718e-01	   5.9818091440567145e-01	   8.0136108817485940e-01	   1.7553149042097682e-01	   9.8447381675217271e-01	
   7.9786105553211903e-02	  -9.9681200703073980e-01	  -9.8726835472130348e-01	  -1.5906349601932723e-01	  -2.3732669987149058e-01	   9.7142989326461815e-01	
  -9.9934809538967817e-01	   3.6102413229903568e-02	   9.9739323151795456e-01	  -7.2157755800550505e-02	  -9.9413795715437026e-01	   1.0811901842384372e-01	
   7.2081589829993808e-01	   6.9312656907526871e-01	   3.9151118483893514e-02	   9.9923330104708785e-01	  -6.6437440102110812e-01	   7.4739992993566962e-01	
   5.0993260439009891e-01	  -8.6021435641352262e-01	  -4.7993747795986175e-01	  -8.7730269419940077e-01	  -9.9940414055107496e-01	  -3.4516138969579280e-02	
  -9.8726835472133534e-01	   1.5906349601912953e-01	   9.4939760846834476e-01	  -3.1407671202205939e-01	  -8.8735207505649105e-01	   4.6109250144948083e-01	
   9.2797645609267010e-01	   3.7263882907942997e-01	   7.2228060612462275e-01	   6.9160012002330329e-01	   4.1254233825931613e-01	   9.1093842774555078e-01	
   1.2839835514648423e-01	  -9.9172267413611015e-01	  -9.6702772479135457e-01	  -2.5467112024109867e-01	  -3.7672789363499898e-01	   9.2632396825157071e-01	
  -9.9220393613953251e-01	   1.2462483343707394e-01	   9.6893730178156312e-01	  -2.4730650055399678e-01	  -9.3056287326063758e-01	   3.6613213312806425e-01	
   1.4410476677434810e-02	   9.9989616368997492e-01	  -9.9958467632385817e-01	   2.8817960693421844e-02	  -4.3219460008006728e-02	  -9.9906560258904731e-01	
   9.9987284656601050e-01	   1.5946494912149795e-02	   9.9949141860003354e-01	   3.1888934521123243e-02	   9.9885581310182059e-01	   4.7823264555035432e-02	
  -9.6446917505439056e-01	  -2.6419540187123502e-01	   8.6040157926019323e-01	   5.0961664259182649e-01	  -6.9519242767475597e-01	  -7.1882368387781936e-01	
  -1.8908951273974106e-01	   9.8195985466405256e-01	  -9.2849031234369461e-01	  -3.7135662089682531e-01	   5.4022507422901922e-01	  -8.4152056966793787e-01	
   9.2446319861080306e-01	  -3.8127128716215031e-01	   7.0926441117143424e-01	  -7.0494254733675898e-01	   3.8691449381389986e-01	  -9.2211559713342539e-01	
   3.5964677315285208e-02	   9.9935306172824001e-01	  -9.9741308397121486e-01	   7.1882820778196896e-02	  -1.0770795674542206e-01	  -9.9418257682063926e-01	
   2.2486011237071934e-01	  -9.7439105592396913e-01	  -8.9887585972925499e-01	  -4.3820336465617510e-01	  -6.2910276602281312e-01	   7.7732214028834001e-01	
  -5.6470808218514079e-01	   8.2529072569294049e-01	  -3.6220956382956065e-01	  -9.3209668590248695e-01	   9.7379341846375578e-01	   2.2743433812129740e-01	
   7.1933980033858835e-01	   6.9465837045906231e-01	   3.4899496702320447e-02	   9.9939082701910198e-01	  -6.6913060635905963e-01	   7.4314482547721294e-01	
  -3.3555513940327381e-01	  -9.4202056687741664e-01	  -7.7480549684009892e-01	   6.3219968527860515e-01	   8.5553507240847826e-01	   5.1774485982868024e-01	
  -3.5091806356517413e-01	   9.3640616863819748e-01	  -7.5371302532733686e-01	  -6.5720367881800035e-01	   8.7990109422861029e-01	  -4.7515688396075489e-01	
   9.7364622064653183e-01	  -2.2806366878730386e-01	   8.9597392595854997e-01	  -4.4410665836308161e-01	   7.7107703296822405e-01	  -6.3674187017104522e-01	
  -9.1625676592364536e-01	  -4.0059148630386820e-01	   6.7905292220171554e-01	   7.3408931939465705e-01	  -3.2811690285144396e-01	  -9.4463712507140862e-01	
  -8.5652455547783291e-01	   5.1610627380753726e-01	   4.6726862827299875e-01	  -8.8411539350464319e-01	   5.6070447237298947e-02	   9.9842681501781050e-01	
   2.9956210747926214e-02	   9.9955121201348451e-01	  -9.9820525087525169e-01	   5.9885533520842034e-02	  -8.9761104477737844e-02	  -9.9596332468767979e-01	
   9.4038479883999160e-01	  -3.4011237864957011e-01	   7.6864713977866284e-01	  -6.3967302155873407e-01	   5.0526337299939394e-01	  -8.6296519275418937e-01	
  -8.5894078010977659e-01	  -5.1207493227496359e-01	   4.7555852747118299e-01	   8.7968408360583639e-01	   4.1987554961867998e-02	  -9.9911813377013836e-01	
   2.7084046814303975e-01	   9.6262424695000237e-01	  -8.5329088163211808e-01	   5.2143520337955951e-01	  -7.3305187182989995e-01	  -6.8017273777084009e-01	
   9.1197565669548630e-01	  -4.1024431939374439e-01	   6.6339919681032689e-01	  -7.4826566516940574e-01	   2.9803217962922662e-01	  -9.5455582335736255e-01	
   6.3154585375411942e-01	  -7.7533852903488576e-01	  -2.0229966921196083e-01	  -9.7932366653560010e-01	  -8.8706888836740649e-01	  -4.6163707313279523e-01	
  -9.0620726986075273e-01	  -4.2283375462647366e-01	   6.4242323189695816e-01	   7.6635004477005619e-01	  -2.5812993628417374e-01	  -9.6611020903100309e-01	
  -2.3394448180160535e-01	   9.7224995728185992e-01	  -8.9053995886915671e-01	  -4.5490502487587531e-01	   6.5061830020414124e-01	  -7.5940491665479348e-01	
   3.9178040155861915e-01	   9.2005875733812081e-01	  -6.9301623390913425e-01	   7.2092197881490627e-01	  -9.3480075837374432e-01	  -3.5517255263304398e-01	
   4.4864830350677114e-02	  -9.9899306654130737e-01	  -9.9597429399520987e-01	  -8.9639308903756890e-02	  -1.3423326581813724e-01	   9.9094976176786953e-01	
  -9.6260522220989020e-01	  -2.7090807698230007e-01	   8.5321762765150433e-01	   5.2155505928400203e-01	  -6.8001826590785330e-01	  -7.3319517049123839e-01	
  -5.1897205212499959e-14	   1.0000000000000000e+00	  -1.0000000000000000e+00	  -1.0379441042499992e-13	   1.5613570484734993e-13	  -1.0000000000000000e+00	
   9.8755068283859415e-01	   1.5730114057128242e-01	   9.5051270234994734e-01	   3.1068569756491926e-01	   8.8980825366630156e-01	   4.5633460498555956e-01	
  -1.1776281470019344e-01	  -9.9304175112322846e-01	  -9.7226383894777579e-01	   2.3388678345416070e-01	   3.4675586731160468e-01	   9.3795541924175518e-01	
  -8.8257592513768546e-01	  -4.7016990159660221e-01	   5.5788052726528270e-01	   8.2992127174703145e-01	  -1.0216791979722788e-01	  -9.9476716681055932e-01	
  -8.7522342190877944e-01	   4.8371888710519323e-01	   5.3203207651542661e-01	  -8.4672419922822761e-01	  -5.6070447237350655e-02	   9.9842681501780761e-01	
   5.3283467301285148e-01	   8.4621936354309901e-01	  -4.3217442247057519e-01	   9.0179003574126104e-01	  -9.9338970717610531e-01	   1.1479063409778573e-01	
   3.6238410330687476e-01	  -9.3202884165162636e-01	  -7.3735552334094467e-01	  -6.7550487207613952e-01	  -8.9679594359543391e-01	   4.4244438695815241e-01	
  -6.8523042346880592e-01	  -7.2832634632612381e-01	  -6.0918533505521760e-02	   9.9814274143307613e-01	   7.6871688849098119e-01	  -6.3958920046287870e-01	
  -9.9455491567145549e-01	  -1.0421381728803546e-01	   9.7827896057251196e-01	   2.0729272852940514e-01	  -9.5134938259925195e-01	  -3.0811418699570142e-01	
   7.5183980747893653e-01	   6.5934581510011547e-01	   1.3052619221992867e-01	   9.9144486137382659e-01	  -5.5557023301975705e-01	   8.3146961230244176e-01	
  -5.6395702985074725e-01	  -8.2580413445436529e-01	  -3.6390493696384674e-01	   9.3143609381070191e-01	   9.7441052464705591e-01	  -2.2477573146816651e-01	
   4.7093856522013722e-01	   8.8216600920030841e-01	  -5.5643373557679709e-01	   8.3089198931753516e-01	  -9.9503077536537332e-01	  -9.9567846596097076e-02	
  -2.3426646067196558e-01	  -9.7217242575801877e-01	  -8.9023845080846087e-01	   4.5549478669042054e-01	   6.5137248272194925e-01	   7.5875812269302523e-01	
  -9.8202755565342681e-01	   1.8873759545293464e-01	   9.2875624012528879e-01	  -3.7069103904510148e-01	  -8.4210088492278212e-01	   5.3932003449924537e-01	
   8.9251883585990133e-01	   4.5101011921606216e-01	   5.9317974472942681e-01	   8.0507005312751023e-01	   1.6632935458326153e-01	   9.8607025399000636e-01	
  -7.4490873439807326e-01	  -6.6716637911203280e-01	   1.0977804516507848e-01	   9.9395612619457907e-01	   5.8135948502084656e-01	  -8.1364682090959839e-01	
  -9.8396933399276953e-01	  -1.7833774071078021e-01	   9.3639130047634900e-01	   3.5095773590592327e-01	  -8.5879131457990354e-01	  -5.1232555860714302e-01	
   9.5748518835511287e-01	   2.8848243288036457e-01	   8.3355577183885188e-01	   5.5243531316719419e-01	   6.3874942205211627e-01	   7.6941482688344875e-01	
  -2.5669338862918029e-01	  -9.6649288886885687e-01	  -8.6821700846813721e-01	   4.9618466945950523e-01	   7.0242452056753191e-01	   7.1175824049003666e-01	
  -9.5518856021973009e-01	   2.9599799733335874e-01	   8.2477037114928187e-01	  -5.6546780180154887e-01	  -6.2043388644021913e-01	   7.8425875357351627e-01	
  -8.8445497039303947e-02	   9.9608101781605618e-01	  -9.8435478810694099e-01	  -1.7619776142431370e-01	   2.6256899403357792e-01	  -9.6491322064328400e-01	
   9.8813647007273642e-01	   1.5357837254051099e-01	   9.5282736697561599e-01	   3.0351278184339242e-01	   8.9491047191123374e-01	   4.4624572520486172e-01	
   7.1346133365808184e-01	  -7.0069460207342205e-01	   1.8054149250337496e-02	  -9.9983701056464525e-01	  -6.8769945885366734e-01	  -7.2599549192289958e-01	
  -4.7364085967600006e-01	  -8.8071807977659888e-01	  -5.5132867209075920e-01	   8.3428813687516856e-01	   9.9590443210218960e-01	   9.0412179042512322e-02	
  -9.7202291408045849e-01	  -2.3488604578078609e-01	   8.8965709099493295e-01	   4.5662923739335137e-01	  -7.5751124216201793e-01	  -6.5282211819006009e-01	
  -6.4687960435400704e-01	  -7.6259214359367966e-01	  -1.6309355494160660e-01	   9.8661060826270719e-01	   8.5788339294063698e-01	  -5.1384441625521293e-01	
  -9.4744204869572846e-01	  -3.1992743609018726e-01	   7.9529287127351833e-01	   6.0622541096651750e-01	  -5.5954576584925320e-01	  -8.2879945458486681e-01	
  -9.8883082622511564e-01	  -1.4904226617626010e-01	   9.5557280578608972e-01	   2.9475517441106974e-01	  -9.0096886790230679e-01	  -4.3388373911779143e-01	
  -9.9956900622699263e-01	  -2.9356460794556210e-02	   9.9827639641923538e-01	   5.8687616685512443e-02	  -9.9612328479028422e-01	  -8.7968184581780920e-02	
  -6.8454710592888346e-01	  -7.2896862742122859e-01	  -6.2790519528779967e-02	   9.9802672842830509e-01	   7.7051324277527855e-01	  -6.3742398974930703e-01	
  -9.7094181742605901e-01	  -2.3931566428752940e-01	   8.8545602565323700e-01	   4.6472317204371683e-01	  -7.4851074817115892e-01	  -6.6312265824072991e-01	
   6.8091941650063215e-01	   7.3235834687155621e-01	  -7.2697496464877359e-02	   9.9735403644229526e-01	  -7.7992169024847413e-01	   6.2587711020611958e-01	
   6.5486073394525501e-01	  -7.5574957435428425e-01	  -1.4231483827336372e-01	  -9.8982144188092147e-01	  -8.4125353283124504e-01	  -5.4064081745549819e-01	
   9.9237079001535522e-01	  -1.2328915250053328e-01	   9.6959956975140049e-01	  -2.4469710733455563e-01	   9.3203379205013615e-01	  -3.6237137093959781e-01	
  -5.9400549375298942e-02	  -9.9823422839227105e-01	  -9.9294314946782536e-01	   1.1859132314345706e-01	   1.7736328652895572e-01	   9.8414544890054112e-01	
  -5.2430728355732037e-01	   8.5152913773325667e-01	  -4.5020374481748721e-01	  -8.9292585814966230e-01	   9.9639748854249999e-01	   8.4805924475820652e-02	
   9.7814760073376439e-01	  -2.0791169081795360e-01	   9.1354545764243933e-01	  -4.0673664307616308e-01	   8.0901699437459829e-01	  -5.8778525229295364e-01	
   7.7748555067956227e-01	   6.2890080178395213e-01	   2.0896756303100419e-01	   9.7792257239562852e-01	  -4.5254702904490918e-01	   8.9174053765802652e-01	
  -6.8062576605848657e-01	  -7.3263126235323750e-01	  -7.3497133154596703e-02	   9.9729542835513663e-01	   7.8067385117138643e-01	  -6.2493866746844517e-01	
  -3.5091806356529992e-01	   9.3640616863815040e-01	  -7.5371302532716022e-01	  -6.5720367881820285e-01	   8.7990109422880192e-01	  -4.7515688396040007e-01	
   6.8675131121371491e-01	   7.2689245184294160e-01	  -5.6745273092486496e-02	   9.9838868882898468e-01	  -7.6469109261660584e-01	   6.4439703046555197e-01	
   7.9535792487840884e-01	  -6.0614005917206248e-01	   2.6518845733377716e-01	  -9.6419659929753510e-01	  -3.7351844262500988e-01	  -9.2762275361214985e-01	
  -5.4064081745567516e-01	  -8.4125353283113136e-01	  -4.1541501300171868e-01	   9.0963199535459494e-01	   9.8982144188089338e-01	  -1.4231483827355895e-01	
  -6.8017273777098242e-01	   7.3305187182976794e-01	  -7.4730093586252905e-02	  -9.9720379718119301e-01	   7.8183148246786938e-01	   6.2348980185893466e-01	
  -4.1686582602839067e-01	   9.0896803194043496e-01	  -6.5244576617933503e-01	  -7.5783541893649997e-01	   9.6083051254254026e-01	  -2.7713665612336336e-01	
   8.3585720780888129e-01	   5.4894692653656474e-01	   3.9731454369211888e-01	   9.1768249050024020e-01	  -1.7166075758417279e-01	   9.8515612179269729e-01	
  -1.9558282102693839e-01	  -9.8068718770010688e-01	  -9.2349472023828916e-01	   3.8361113343072306e-01	   5.5682222620231403e-01	   8.3063169239266266e-01	
  -9.8651907562843566e-01	   1.6364630585875414e-01	   9.4643977315756622e-01	  -3.2288040477157276e-01	  -8.8084270467834136e-01	   4.7340905104882008e-01	
  -2.4192189559965055e-01	   9.7029572627600080e-01	  -8.8294759285894353e-01	  -4.6947156278585950e-01	   6.6913060635881894e-01	  -7.4314482547742966e-01	
   9.0579346314785703e-01	  -4.2371948517694080e-01	   6.4092359576277658e-01	  -7.6760467976329649e-01	   2.5529534369042889e-01	  -9.6686311724565532e-01	
  -9.1448430020466898e-01	  -4.0462138435724937e-01	   6.7256307064164611e-01	   7.4003980704356720e-01	  -3.1561243779379006e-01	  -9.4888818577841982e-01	
  -9.9933284837023295e-01	   3.6522023057834876e-02	   9.9733228366352600e-01	  -7.2995314661258900e-02	  -9.9400097523988817e-01	   1.0937120837839924e-01	
  -6.0263463637916348e-01	   7.9801722728030966e-01	  -2.7366299007230693e-01	  -9.6182564317275532e-01	   9.3247222940448204e-01	   3.6124166618682707e-01	
   9.6858316112868792e-01	  -2.4868988716463342e-01	   8.7630668004408374e-01	  -4.8175367410131470e-01	   7.2896862742188095e-01	  -6.8454710592818890e-01	
  -9.9004851051444520e-01	   1.4072649653895519e-01	   9.6039210634374284e-01	  -2.7865211657661765e-01	  -9.1162103827646090e-01	   4.1103172939780125e-01	
   7.7887727876202251e-01	   6.2717635847364872e-01	   2.1329963074346656e-01	   9.7698683078366044e-01	  -4.4660880685319149e-01	   8.9472932982057130e-01	
  -6.3008784358189773e-01	  -7.7652386271789098e-01	  -2.0597861874062781e-01	   9.7855649229960306e-01	   8.8965709099441792e-01	  -4.5662923739435479e-01	
  -7.7358504123601068e-01	   6.3369249954207252e-01	   1.9686763204824073e-01	  -9.8043007677840976e-01	   4.6899733072386252e-01	   8.8319958320522995e-01	
   1.9199989283012847e-01	   9.8139494657004378e-01	  -9.2627208230643832e-01	   3.7685544913095614e-01	  -5.4768817389888080e-01	  -8.3668253487885669e-01	
   4.6472317204362801e-01	  -8.8545602565328363e-01	  -5.6806474673141705e-01	  -8.2298386589347605e-01	  -9.9270887409799657e-01	   1.2053668025579571e-01	
  -9.5187817273876796e-01	  -3.0647666185780631e-01	   8.1214411147299170e-01	   5.8345688975257193e-01	  -5.9424633292015450e-01	  -8.0428309432124012e-01	
   1.9039110916477980e-01	   9.8170831999683328e-01	  -9.2750245110200980e-01	   3.7381707184097934e-01	  -5.4356755000150714e-01	  -8.3936542613176468e-01	
   9.0435716069757399e-01	  -4.2677643549641114e-01	   6.3572374820995525e-01	  -7.7191665091633144e-01	   2.4548548714077420e-01	  -9.6940026593933670e-01	
  -6.0673452360911184e-01	  -7.9490453380316306e-01	  -2.6374643572164813e-01	   9.6459204726357062e-01	   9.2678265967146278e-01	  -3.7559805874403784e-01	
  -2.5391226441044756e-01	   9.6722725456945169e-01	  -8.7105712396391799e-01	  -4.9118172481445976e-01	   6.9625643796350833e-01	  -7.1779312660011396e-01	
   9.1399801152388205e-01	  -4.0571866475476509e-01	   6.7078473013922102e-01	  -7.4165210564795969e-01	   3.1219380749178255e-01	  -9.5001843485470527e-01	
  -7.3083596427820186e-01	  -6.8255314321857075e-01	   6.8242413364898322e-02	   9.9766876919052361e-01	   6.3108794432578796e-01	  -7.7571129070463529e-01	
   6.3664070486724378e-01	   7.7116056233843999e-01	  -1.8937722581227789e-01	   9.8190440794592904e-01	  -8.7777120592110747e-01	   4.7908006643545997e-01	
  -4.6666732322570376e-01	  -8.8443293099779841e-01	  -5.6444321886671300e-01	   8.2547189696281231e-01	   9.9348173534856199e-01	   1.1399140989043842e-01	
  -9.3888058301152499e-01	   3.4424301132185536e-01	   7.6299349831212193e-01	  -6.4640615833501303e-01	  -4.9383897804705074e-01	   8.6955337027777924e-01	
  -1.5868254645611299e-01	   9.8732965591549182e-01	  -9.4963969890040711e-01	  -3.1334396798461617e-01	   4.6006503773077856e-01	  -8.8788521840256884e-01	
  -4.6253829024076287e-01	  -8.8659930637303785e-01	  -5.7211666012230367e-01	   8.2017225459686238e-01	   9.9179001382321486e-01	   1.2787716168474814e-01	
   7.6268517811035974e-01	   6.4676991201722489e-01	   1.6337736181846232e-01	   9.8656365108655775e-01	  -5.1347419351493062e-01	   8.5810503587509124e-01	
  -9.9691733373313363e-01	  -7.8459095727773542e-02	   9.8768834059516009e-01	   1.5643446504008940e-01	  -9.7236992039772696e-01	  -2.3344536385569561e-01	
   9.5535095151516969e-01	  -2.9547344963475120e-01	   8.2539088112188030e-01	  -5.6456168251205829e-01	   6.2172497578829422e-01	  -7.8323563151904996e-01	
  -5.4388355919388709e-01	   8.3916069619506695e-01	  -4.0838134807717902e-01	  -9.1281141236438645e-01	   9.8810736139511479e-01	   1.5376554346401552e-01	
  -1.3246295424656904e-01	  -9.9118795682366490e-01	  -9.6490713150454277e-01	   2.6259136994896670e-01	   3.8809185267191704e-01	   9.2162069957747750e-01	
   7.8419719111167963e-01	   6.2051169646715909e-01	   2.2993046909489637e-01	   9.7320705884297865e-01	  -4.2357553508126244e-01	   9.0586078736228681e-01	
  -9.7836921022075529e-01	   2.0686635418070198e-01	   9.1441262301596871e-01	  -4.0478334312204084e-01	  -8.1089710137128923e-01	   5.8518876526095487e-01	
  -1.6911122372906470e-01	  -9.8559697341705454e-01	  -9.4280278801771644e-01	   3.3335102055644111e-01	   4.8798829016276474e-01	   8.7285017538178988e-01	
   5.6897670522613919e-01	   8.2235363981076115e-01	  -3.5253101782001428e-01	   9.3580012902050014e-01	  -9.7014057924463726e-01	   2.4254330850979919e-01	
  -9.3133617745227648e-01	   3.6416057525298051e-01	   7.3477415086283659e-01	  -6.7831183626986591e-01	  -4.3730732045839665e-01	   8.9931213017144229e-01	
  -2.5244810132830769e-01	  -9.6761043614449127e-01	  -8.7253991227146499e-01	   4.8854283486026501e-01	   6.9299018970050730e-01	   7.2094701398844485e-01	
   9.4608535882764255e-01	   3.2391741819786557e-01	   7.9015501237605812e-01	   6.1290705365250231e-01	   5.4902281799888397e-01	   8.3580736136777611e-01	
  -8.2266148212987000e-01	   5.6853151699785798e-01	   3.5354382836022874e-01	  -9.3541796082200235e-01	   2.4096770245648214e-01	   9.7053313512360018e-01	
   5.7016746986705469e-01	  -8.2152848782339938e-01	  -3.4981811261080259e-01	  -9.3681763865195011e-01	  -9.6907728622899414e-01	  -2.4675739769062277e-01	
  -9.4939760846834476e-01	   3.1407671202205928e-01	   8.0271163793082490e-01	  -5.9636735853868816e-01	  -5.7478741021412127e-01	   8.1830277590836964e-01	
   6.0716250781851866e-01	   7.9457767971390147e-01	  -2.6270737819905465e-01	   9.6487555334342412e-01	  -9.2617464895805068e-01	   3.7709484168764701e-01	
  -6.6502457211399246e-01	  -7.4682147698402535e-01	  -1.1548463696920233e-01	   9.9330926635368277e-01	   8.1862481468635906e-01	  -5.7432866268341876e-01	
   4.3603331927707073e-01	   8.9993052202946211e-01	  -6.1974988896044025e-01	   7.8479938527850668e-01	  -9.7649652168710421e-01	  -2.1553316017027815e-01	
   3.6382273681087585e-01	  -9.3146820459930046e-01	  -7.3526603235888832e-01	  -6.7777862289926061e-01	  -8.9883573716464493e-01	   4.3828565752907006e-01	
   7.6714860662204543e-01	   6.4146941887969544e-01	   1.7703396928429163e-01	   9.8420474176842310e-01	  -4.9552588089961680e-01	   8.6859317367721622e-01	
  -8.9334553378567128e-01	  -4.4937040096694636e-01	   5.9613248546961173e-01	   8.0288608143859563e-01	  -1.7175905309198666e-01	  -9.8513898901674990e-01	
  -1.8245553420414906e-01	   9.8321410589875013e-01	  -9.3341995607655714e-01	  -3.5878570985762248e-01	   5.2307080764967240e-01	  -8.5228922918497529e-01	
   9.4466909160789359e-01	   3.2802485783964164e-01	   7.8479938527856574e-01	   6.1974988896036542e-01	   5.3808235316317843e-01	   8.4289227141692102e-01	
  -6.7533280812115959e-01	  -7.3751311735805014e-01	  -8.7851196550378208e-02	   9.9613360914320470e-01	   7.9399039864750121e-01	  -6.0793029769504170e-01	
   3.0286206320010018e-02	   9.9954126763567985e-01	  -9.9816549141348354e-01	   6.0544626113957098e-02	  -9.0747498348936140e-02	  -9.9587393355956955e-01	
   7.6353163766983645e-01	  -6.4577042226879489e-01	   1.6596112344556477e-01	  -9.8613229614726949e-01	  -5.1009850092200126e-01	  -8.6011599180408627e-01	
  -4.8468133777536032e-01	  -8.7469080297685031e-01	  -5.3016800162457423e-01	   8.4789261705324781e-01	   9.9860641032153641e-01	   5.2775347130410544e-02	
  -9.9994405609191517e-01	  -1.0577555788029609e-02	   9.9977623062710219e-01	   2.1153928076441682e-02	  -9.9949654238318608e-01	  -3.1727933498037875e-02	
  -5.9715859170270191e-01	   8.0212319275510646e-01	  -2.8680323271129149e-01	  -9.5798951231542862e-01	   9.3969262078601612e-01	   3.4202014332537267e-01	
   9.9870958023777578e-01	   5.0785572176413635e-02	   9.9484165131742852e-01	   1.0144007494088264e-01	   9.8840619574279376e-01	   1.5183277715058122e-01	
  -8.3235543023640635e-01	  -5.5424221939145601e-01	   3.8563112448806636e-01	   9.2265304195351217e-01	   1.9039110916477997e-01	  -9.8170831999683328e-01	
   5.4619358767793824e-01	   8.3765897880909890e-01	  -4.0334512955900476e-01	   9.1504792577275951e-01	  -9.8680263445044947e-01	   1.6192764014105970e-01	
   4.7515688396065603e-01	  -8.7990109422866369e-01	  -5.4845187124959927e-01	  -8.3618212425452687e-01	  -9.9635824825135710e-01	   8.5265709059897513e-02	
  -1.0342923248003512e-01	   9.9463681505793400e-01	  -9.7860478773718174e-01	  -2.0574904475565750e-01	   3.0586191667392409e-01	  -9.5207588349277783e-01	
   9.3969262078601390e-01	   3.4202014332537867e-01	   7.6604444311937481e-01	   6.4278760968606641e-01	   5.0000000000080203e-01	   8.6602540378397563e-01	
  -3.0738829588303274e-01	  -9.5158417155505748e-01	  -8.1102487110825028e-01	   5.8501167376715313e-01	   8.0598740198047480e-01	   5.9193268861312642e-01	
  -8.9761104477930884e-02	   9.9596332468766235e-01	  -9.8388588824580392e-01	  -1.7879753608695334e-01	   2.6639047249631820e-01	  -9.6386519605346699e-01	
   8.3618212425460003e-01	  -5.4845187124948769e-01	   3.9840108984587064e-01	  -9.1721130150561414e-01	  -1.6991038502926428e-01	  -9.8545951771709384e-01	
  -7.8104039795204871e-01	  -6.2448050151057988e-01	   2.2004820646618925e-01	   9.7548899882623652e-01	   4.3730732045807386e-01	  -8.9931213017159928e-01	
  -2.2774215122883662e-01	   9.7372147586137880e-01	  -8.9626702510732348e-01	  -4.4351484722077622e-01	   6.3597771197565967e-01	  -7.7170742504540202e-01	
   9.8202755565338762e-01	   1.8873759545313903e-01	   9.2875624012513447e-01	   3.7069103904548806e-01	   8.4210088492244539e-01	   5.3932003449977117e-01	
  -4.0830434224373796e-01	  -9.1284585999220513e-01	  -6.6657512820981701e-01	   7.4543785686807329e-01	   9.5263538080322729e-01	   3.0411483232800440e-01	
  -5.8489332890068868e-01	   8.1111022297063351e-01	  -3.1579958761494170e-01	  -9.4882591683734729e-01	   9.5431147303182462e-01	   2.9881367512185414e-01	
   8.9418310257615718e-01	  -4.4770143965289805e-01	   5.9912684186544496e-01	  -8.0065412467328123e-01	   1.7727509401563848e-01	  -9.8416133892860602e-01	
   3.4462059882251352e-02	  -9.9940600680037550e-01	  -9.9762473285734421e-01	  -6.8883179306072476e-02	  -1.0322246644974008e-01	   9.9465829430012409e-01	
  -9.1140327663545706e-01	  -4.1151435860508256e-01	   6.6131186532369501e-01	   7.5011106963042151e-01	  -2.9404032523238677e-01	  -9.5579301479830470e-01	
  -1.8968804521506286e-01	   9.8184441002762157e-01	  -9.2803689100497655e-01	  -3.7248829368695235e-01	   5.4176305269945990e-01	  -8.4053125743767687e-01	
   7.2675913615045684e-01	  -6.8689239187942797e-01	   5.6357683956316636e-02	  -9.9841064270122837e-01	  -6.4484221273538989e-01	  -7.6431572054650698e-01	
  -6.9493125192851535e-01	   7.1907618170334797e-01	  -3.4141110186132834e-02	  -9.9941702236616836e-01	   7.4238270081627267e-01	   6.6997606339983262e-01	
   9.2514440987815139e-01	   3.7961535910867328e-01	   7.1178435825758612e-01	   7.0239805476655215e-01	   3.9186223028327499e-01	   9.2002390864445338e-01	
  -4.0334512955829299e-01	  -9.1504792577307326e-01	  -6.7462541292320766e-01	   7.3816024834597505e-01	   9.4755887871594946e-01	   3.1958124376529434e-01	
  -6.6731881122250924e-01	   7.4477218274354018e-01	  -1.0937120837715424e-01	  -9.9400097524002518e-01	   8.1328974073493299e-01	   5.8185891555883662e-01	
   6.5794200328183811e-02	   9.9783321412106485e-01	  -9.9134224640634960e-01	   1.3130327676799375e-01	  -1.9624334103588587e-01	  -9.8055522593022415e-01	
   3.2469946920514287e-01	  -9.4581724170047698e-01	  -7.8914050939579694e-01	  -6.1421271269043431e-01	  -8.3716647826332546e-01	   5.4694815812120712e-01	
   6.5317284295393196e-01	   7.5720884650635067e-01	  -1.4673047445495618e-01	   9.8917650996484119e-01	  -8.4485356524937805e-01	   5.3499761988761685e-01	
   8.3146961230257932e-01	  -5.5557023301955122e-01	   3.8268343236520302e-01	  -9.2387953251123989e-01	  -1.9509032201594881e-01	  -9.8078528040326618e-01	
   7.1148908060532190e-01	  -7.0269715253400156e-01	   1.2433423641212447e-02	  -9.9992270200078870e-01	  -6.9379659029479768e-01	  -7.2017101531185812e-01	
  -5.5051078270626919e-01	   8.3482805302896401e-01	  -3.9387575624826165e-01	  -9.1916368979625163e-01	   9.8417648442877770e-01	   1.7719099158086982e-01	
   9.5532474208847629e-01	  -2.9555817896581099e-01	   8.2529072569282735e-01	  -5.6470808218530610e-01	   6.2151655725254773e-01	  -7.8340102697209979e-01	
  -7.3360165157437340e-01	  -6.7957973543017869e-01	   7.6342766385296745e-02	   9.9708163257610960e-01	   6.2159129256235357e-01	  -7.8334172939443392e-01	
   1.1311382619574083e-01	   9.9358203603092565e-01	  -9.7441052464671951e-01	   2.2477573146962485e-01	  -3.3355243165211995e-01	  -9.4273154998597442e-01	
  -2.2022950174812841e-01	  -9.7544808501517455e-01	  -9.0299793311954224e-01	   4.2964489148811580e-01	   6.1796307152914154e-01	   7.8620712425306161e-01	
   2.2486011237061290e-01	   9.7439105592399367e-01	  -8.9887585972935069e-01	   4.3820336465597876e-01	  -6.2910276602255888e-01	  -7.7732214028854574e-01	
   8.1172391229471985e-01	   5.8404134289359511e-01	   3.1779141958209217e-01	   9.4816064759090202e-01	  -2.9580612350098257e-01	   9.5524799779916914e-01	
   9.8779927964483305e-01	  -1.5573240874380942e-01	   9.5149483373370214e-01	  -3.0766472234897929e-01	   8.9197254305103013e-01	  -4.5208957347308759e-01	
  -9.9891389621750237e-01	   4.6594290890290158e-02	   9.9565794411286201e-01	  -9.3087369309422838e-02	  -9.9023921628987210e-01	   1.3937824264073606e-01	
  -9.8651907562847152e-01	  -1.6364630585853790e-01	   9.4643977315770766e-01	   3.2288040477115787e-01	  -8.8084270467865289e-01	  -4.7340905104824049e-01	
   2.8522398922579539e-01	   9.5846088911865535e-01	  -8.3729455194024671e-01	   5.4675207662265124e-01	  -7.6285697374863959e-01	  -6.4656727229505473e-01	
   9.5856294749751669e-01	  -2.8488080961144630e-01	   8.3768584863025386e-01	  -5.4615237709325359e-01	   6.4738628478243332e-01	  -7.6216205512712198e-01	
  -2.3964427626687418e-01	  -9.7086076285558376e-01	  -8.8514124170505215e-01	   4.6532244974086351e-01	   6.6388234079161335e-01	   7.4783703945782742e-01	
  -9.4724182191192785e-01	   3.2051978226151895e-01	   7.9453413835805697e-01	  -6.0721948501643119e-01	  -5.5799010766709078e-01	   8.2984760031325544e-01	
  -7.4750832686271163e-01	   6.6425243791115240e-01	   1.1753739745818123e-01	  -9.9306845695488566e-01	   5.7178796022718614e-01	   8.2040144352581057e-01	
   2.1903771891508383e-01	   9.7571639203842253e-01	  -9.0404495538495344e-01	   4.2743738564030348e-01	  -6.1507760856350169e-01	  -7.8846657217906435e-01	
   9.8751092817942610e-01	   1.5755052118672383e-01	   9.5035566654758341e-01	   3.1116572282450800e-01	   8.8946228456653631e-01	   4.5700858234137998e-01	
   6.4562785155886426e-01	   7.6365219654727978e-01	  -1.6632935458297043e-01	   9.8607025399005543e-01	  -8.6040157926001559e-01	   5.0961664259212636e-01	
   1.8703746507307567e-01	  -9.8235278116318170e-01	  -9.3003397331807602e-01	  -3.6747354799249471e-01	  -5.3493985867558180e-01	   8.4489013936733137e-01	
  -4.6224601036939716e-01	   8.8675172731581142e-01	  -5.7265725179515026e-01	  -8.1979489627981084e-01	   9.9166307027222023e-01	  -1.2885788706273876e-01	
   9.9983025042492035e-01	  -1.8424720764263873e-02	   9.9932105932951776e-01	  -3.6843186351486354e-02	   9.9847259958373646e-01	  -5.5249143708255115e-02	
   4.9738418334622619e-01	  -8.6753038803087912e-01	  -5.0521794831401523e-01	  -8.6299178715754699e-01	  -9.9995901661427100e-01	   9.0534574511654826e-03	
  -7.4941034383602234e-01	  -6.6210583485691687e-01	   1.2323172689685040e-01	   9.9237792271191727e-01	   5.6470808218547108e-01	  -8.2529072569271444e-01	
  -7.1376611268705736e-01	   7.0038413487143403e-01	   1.8924127240785949e-02	  -9.9982092266974221e-01	   6.8675131121375521e-01	   7.2689245184290363e-01	
   5.4391895432890014e-01	   8.3913775455628015e-01	  -4.0830434224351175e-01	   9.1284585999230627e-01	  -9.8808789609098069e-01	   1.5389057670468129e-01	
   3.5207893896382053e-01	  -9.3597030975245699e-01	  -7.5208084147622067e-01	  -6.5907086711856699e-01	  -8.8166258832775068e-01	   4.7188036655831661e-01	
  -4.1128710313045835e-01	   9.1150585231174230e-01	  -6.6168583759711141e-01	  -7.4978120296751183e-01	   9.5557280578599213e-01	  -2.9475517441138593e-01	
   2.9132451370942380e-01	   9.5662428764482443e-01	  -8.3026005542393555e-01	   5.5737621080150479e-01	  -7.7507472750689810e-01	  -6.3186958051492526e-01	
   9.9425167134470738e-01	   1.0706826807348635e-01	   9.7707277194348818e-01	   2.1290560896009397e-01	   9.4866080171573097e-01	   3.1629524702098594e-01	
  -9.9130068310583752e-01	   1.3161669982908702e-01	   9.6535408865219996e-01	  -2.6094344889741983e-01	  -9.2261165193404049e-01	   3.8573013845892434e-01	
   8.6469341554736412e-01	   5.0230000707648159e-01	   4.9538940578193302e-01	   8.6867101749685616e-01	  -7.9735009242464655e-03	   9.9996821113623957e-01	
  -8.9654724368683258e-01	  -4.4294812318999977e-01	   6.0759392032491355e-01	   7.9424783788449971e-01	  -1.9292606540952431e-01	  -9.8121329652914913e-01	
  -4.5905128045339694e-01	   8.8840977139724031e-01	  -5.7854384382819346e-01	  -8.1565128625442562e-01	   9.9021386506892151e-01	  -1.3955823668013173e-01	
   9.5001843485468129e-01	   3.1219380749185549e-01	   8.0507005312747659e-01	   5.9317974472947244e-01	   5.7964434878639959e-01	   8.1486957785892999e-01	
  -9.3414786026509755e-01	  -3.5688622159189576e-01	   7.4526444967572059e-01	   6.6676900051632981e-01	  -4.5822652172734213e-01	  -8.8883544865495867e-01	
   9.2742645465563234e-01	   3.7400557643554516e-01	   7.2023965759023112e-01	   6.9372533155010752e-01	   4.0851216962695691e-01	   9.1275287305309338e-01	
  -7.4503566254370912e-01	  -6.6702463338174878e-01	   1.1015627692388723e-01	   9.9391427932909182e-01	   5.8089495302103555e-01	  -8.1397853384145757e-01	
   5.6535911598031591e-02	   9.9840056625573859e-01	  -9.9360738139955906e-01	   1.1289097230651825e-01	  -1.6888490975394588e-01	  -9.8563577819466430e-01	
   5.8778525229229039e-01	  -8.0901699437508012e-01	  -3.0901699437537694e-01	  -9.5105651629501398e-01	  -9.5105651629536292e-01	  -3.0901699437430319e-01	
  -3.5460488704181092e-01	  -9.3501624268568961e-01	  -7.4851074817212904e-01	   6.6312265823963490e-01	   8.8545602565212977e-01	   4.6472317204582664e-01	
  -8.6671534066551248e-01	   4.9880308565110609e-01	   5.0239096348987067e-01	  -8.6464057261021443e-01	  -4.1445694712836014e-03	   9.9999141123506541e-01	
   8.7384937706966048e-01	  -4.8619673610069236e-01	   5.2722546761006750e-01	  -8.4972542994978428e-01	   4.7581915822973601e-02	  -9.9886733918304460e-01	
  -9.9933594026771522e-01	   3.6437322750737550e-02	   9.9734464302151715e-01	  -7.2826252383893050e-02	  -9.9402875294203819e-01	   1.0911846005372541e-01	
  -6.8507339229844755e-01	  -7.2847405387199449e-01	  -6.1348894329394908e-02	   9.9811638257497848e-01	   7.6913038260244260e-01	  -6.3909189836659663e-01	
   2.8778951537105057e-01	   9.5769368528903642e-01	  -8.3435438968499165e-01	   5.5122840312649446e-01	  -7.6802640628135543e-01	  -6.4041817529997247e-01	
   6.9823681808601257e-01	  -7.1586684925977728e-01	  -2.4930691738241216e-02	  -9.9968918200081214e-01	  -7.3305187182999754e-01	  -6.8017273777073484e-01	
  -9.9452189536832447e-01	   1.0452846326716703e-01	   9.7814760073400908e-01	  -2.0791169081680247e-01	  -9.5105651629560684e-01	   3.0901699437355229e-01	
  -3.2541675200679027e-01	   9.4557069408550898e-01	  -7.8820787502670231e-01	  -6.1540908812422523e-01	   8.3840884520151759e-01	  -5.4504184085981666e-01	
   9.2034618356930487e-01	   3.9110472048981376e-01	   6.9407419522116931e-01	   7.1990347375747965e-01	   3.5723088980217477e-01	   9.3401610873214946e-01	
   9.8170831999672448e-01	  -1.9039110916534130e-01	   9.2750245110158214e-01	  -3.7381707184204033e-01	   8.3936542613083176e-01	  -5.4356755000294799e-01	
  -2.1511944907084310e-01	  -9.7658774446101715e-01	  -9.0744724526291387e-01	   4.2016603511558259e-01	   6.0553855199446838e-01	   7.9581597247632729e-01	
  -9.4537989880619033e-01	   3.2597062280702133e-01	   7.8748630613360526e-01	  -6.1633214880618525e-01	  -5.4356755000150669e-01	   8.3936542613176501e-01	
   5.3518554465082135e-01	   8.4473453391986042e-01	  -4.2715286559360749e-01	   9.0417942324251632e-01	  -9.9239762269456910e-01	   1.2307298026036279e-01	
   7.4798162941287205e-01	   6.6371943022700863e-01	   1.1895303587827009e-01	   9.9289988178836186e-01	  -5.7003225821319958e-01	   8.2162231262080521e-01	
   9.2764777910286944e-01	  -3.7345628649885371e-01	   7.2106080414897222e-01	  -6.9287178952533313e-01	   4.1013312803097696e-01	  -9.1202566701355847e-01	
  -9.1631690448701242e-01	   4.0045390565124883e-01	   6.7927333889732133e-01	  -7.3388536643217295e-01	  -3.2854238191088964e-01	   9.4448922878364217e-01	
   9.8518331753364596e-01	  -1.7150460884011046e-01	   9.4117233829320146e-01	  -3.3792695901882058e-01	   8.6927125568754426e-01	  -4.9433539630032569e-01	
  -8.7187011652776492e-01	   4.8973717431481723e-01	   5.2031500018827659e-01	  -8.5397441447567601e-01	  -3.5424083162829072e-02	   9.9937237020645764e-01	
   2.6132192321277259e-01	  -9.6525170419345951e-01	  -8.6342170489675552e-01	  -5.0448286344848225e-01	  -7.1258396414731551e-01	   7.0158683998497096e-01	
  -1.2434370464736597e-01	   9.9223920660018705e-01	  -9.6907728622913725e-01	  -2.4675739769006078e-01	   3.6534102436605970e-01	  -9.3087374864433581e-01	
   2.4210062347441480e-01	  -9.7025114692707248e-01	  -8.8277457622659927e-01	  -4.6979681519562055e-01	  -6.6954117405805880e-01	   7.4277494319676418e-01	
   7.8914050939674096e-01	  -6.1421271268922162e-01	   2.4548548714189547e-01	  -9.6940026593905282e-01	  -4.0169542465141678e-01	  -9.1577332665573852e-01	
  -4.6381878838649965e-01	  -8.8593009404787659e-01	  -5.6974426307935899e-01	   8.2182204563284755e-01	   9.9233497596975440e-01	   1.2357708309839265e-01	
  -9.4929741801130396e-01	   3.1437940797239200e-01	   8.0233117568585655e-01	  -5.9687912052822811e-01	  -5.7400440892581150e-01	   8.1885220799221747e-01	
  -6.6837470780226593e-01	  -7.4382474412339605e-01	  -1.0655049994047119e-01	   9.9430729201914014e-01	   8.1080602633006182e-01	  -5.8531494741451384e-01	
   2.8925211953628699e-01	   9.5725295055370063e-01	  -8.3266642268753110e-01	   5.5377488976004474e-01	  -7.7095317479441916e-01	  -6.3689182933556754e-01	
   1.2303577240625885e-02	  -9.9992430812891231e-01	  -9.9969724397416793e-01	  -2.4605291919686939e-02	  -3.6903281757580758e-02	   9.9931884190958820e-01	
  -9.4803788671506928e-01	   3.1815745371250620e-01	   7.9755166929434895e-01	  -6.0325064012050367e-01	  -5.6418051149271076e-01	   8.2565147032620445e-01	
  -1.4062186246540043e-01	   9.9006337766668351e-01	  -9.6045098359352399e-01	  -2.7844911225254837e-01	   4.1074267470469483e-01	  -9.1175131213310201e-01	
   7.4086891263898069e-01	  -6.7164965144421418e-01	   9.7773491429731241e-02	  -9.9520869387965072e-01	  -5.9599423207805657e-01	  -8.0298871432274044e-01	
  -4.4363247191778271e-01	   8.9620880929620284e-01	  -6.0638045972023547e-01	  -7.9517465884513439e-01	   9.8165259645444181e-01	  -1.9067821027650939e-01	
   7.5600855647838772e-01	  -6.5456173317072586e-01	   1.4309787493707105e-01	  -9.8970854204078407e-01	  -5.3964212074578632e-01	  -8.4189451923444081e-01	
  -8.7630668004369061e-01	  -4.8175367410202985e-01	   5.3582679497839047e-01	   8.4432792550239977e-01	  -6.2790519528239094e-02	  -9.9802672842833917e-01	
  -9.1500823497383410e-01	   4.0343516199021229e-01	   6.7448014013986235e-01	  -7.3829299099809398e-01	  -3.1930153013472529e-01	   9.4765317118322523e-01	
   7.7187090696774940e-01	   6.3577928794258776e-01	   1.9156939404643231e-01	   9.8147907123111022e-01	  -4.7613722310798567e-01	   8.7937099381945516e-01	
  -7.9077573693757353e-01	  -6.1210598254782433e-01	   2.5065253225832507e-01	   9.6807711886630665e-01	   3.9435585511388127e-01	  -9.1895781161998913e-01	
  -3.1510821802354649e-01	   9.4905574701069328e-01	  -8.0141362186805021e-01	  -5.9811053049109064e-01	   8.2017225459682142e-01	  -5.7211666012236240e-01	
   9.3566192170728624e-01	  -3.5289767393258370e-01	   7.5092646346594372e-01	  -6.6038583151558505e-01	   4.6956467402751606e-01	  -8.8289807843568935e-01	
  -7.1907618170354903e-01	  -6.9493125192830740e-01	   3.4141110186710823e-02	   9.9941702236614860e-01	   6.6997606339918836e-01	  -7.4238270081685409e-01	
   3.6334332049324333e-02	   9.9933969015271751e-01	  -9.9735963262905891e-01	   7.2620680264155454e-02	  -1.0881112417839682e-01	  -9.9406244233198626e-01	
   4.3275391835292487e-01	  -9.0151208874323474e-01	  -6.2544809230038001e-01	  -7.8026577769232919e-01	  -9.7408414369162766e-01	   2.2618594343713860e-01	
  -4.8598341324251254e-01	   8.7396803262656997e-01	  -5.2764024410631449e-01	  -8.4946793512140806e-01	   9.9883222683231110e-01	  -4.8313379525827704e-02	
   8.5817625992173041e-01	   5.1335514695652040e-01	   4.7293298618649876e-01	   8.8109840005343387e-01	  -4.6456537363440735e-02	   9.9892031220523259e-01	
   6.7092799451247109e-01	  -7.4152250551110954e-01	  -9.9711252358947039e-02	  -9.9501641501686311e-01	  -8.0472613566350104e-01	  -5.9364623015739637e-01	
  -9.9303370928565704e-01	  -1.1783060817278851e-01	   9.7223189555526157e-01	   2.3401953180241805e-01	  -9.3788438177247679e-01	  -3.4694795924930744e-01	
   9.8802266566378028e-01	   1.5430882066375140e-01	   9.5237757573072446e-01	   3.0492122465526778e-01	   8.9391859651997796e-01	   4.4822934173897272e-01	
  -8.8397775039951854e-01	  -4.6752896894054213e-01	   5.6283332640278716e-01	   8.2657041242133367e-01	  -1.1108652504730845e-01	  -9.9381073849748358e-01	
   9.8774954329055686e-01	   1.5604755598629658e-01	   9.5129832054140728e-01	   3.0827180431414408e-01	   8.9153942000514075e-01	   4.5294311185500691e-01	
   7.5447292173242642e-02	   9.9714979120678016e-01	  -9.8861541220745075e-01	   1.5046450327533167e-01	  -2.2462400387681555e-01	  -9.7444551252614853e-01	
  -3.0103869119574661e-01	  -9.5361192652103088e-01	  -8.1875141280630381e-01	   5.7414817253709116e-01	   7.9399039864750287e-01	   6.0793029769503959e-01	
   3.4286978212639774e-01	   9.3938294241730647e-01	  -7.6488062500919307e-01	   6.4417204959975261e-01	  -8.6737868862560752e-01	  -4.9764868182094218e-01	
  -1.2880477849609487e-01	  -9.9166996981685995e-01	  -9.6681865807314393e-01	   2.5546366160697948e-01	   3.7786650469410082e-01	   9.2586008912268336e-01	
  -2.7976899904648250e-01	   9.6006734512352265e-01	  -8.4345861434505853e-01	  -5.3719416032484368e-01	   7.5171614359138250e-01	  -6.5948680006812876e-01	
   1.3636982756566071e-01	   9.9065799856949222e-01	  -9.6280654025942392e-01	   2.7019172088292842e-01	  -3.9896535131419653e-01	  -9.1696600179654408e-01	
   8.9927857500467501e-01	   4.3737631913211883e-01	   6.1740391092487790e-01	   7.8664630601984364e-01	   2.1115764343300011e-01	   9.7745201908831414e-01	
   3.5460488704219673e-01	  -9.3501624268554329e-01	  -7.4851074817158181e-01	  -6.6312265824025263e-01	  -8.8545602565270454e-01	   4.6472317204473129e-01	
  -9.7682864460536345e-01	  -2.1402289381850823e-01	   9.0838840184310310e-01	   4.1812738656650200e-01	  -7.9785097808989813e-01	  -6.0285472276576957e-01	
   8.6471199490575218e-02	   9.9625435088568681e-01	  -9.8504546331732223e-01	   1.7229461743757948e-01	  -2.5682732502217198e-01	  -9.6645730641449223e-01	
   7.6731779474176887e-01	  -6.4126702852448969e-01	   1.7755319625474261e-01	  -9.8411120433603683e-01	  -4.9483834074268718e-01	  -8.6898504965909751e-01	
  -9.2797645609273915e-01	  -3.7263882907925816e-01	   7.2228060612487877e-01	   6.9160012002303595e-01	  -4.1254233825982212e-01	  -9.1093842774532163e-01	
  -1.7267426075685777e-01	   9.8497898438092202e-01	  -9.4036719934414537e-01	  -3.4016103597803254e-01	   4.9742868273035196e-01	  -8.6750487352933459e-01	
   7.6719977567111641e-01	   6.4140821963098404e-01	   1.7719099157962254e-01	   9.8417648442900230e-01	  -4.9531799768945828e-01	   8.6871173651845279e-01	
  -8.1486957785893011e-01	  -5.7964434878639937e-01	   3.2802485783998192e-01	   9.4466909160777546e-01	   2.8027462298832606e-01	  -9.5991985900321475e-01	
  -2.0270039288611133e-01	   9.7924080323678109e-01	  -9.1782510144763219e-01	  -3.9698499109241348e-01	   5.7478741021445134e-01	  -8.1830277590813782e-01	
   5.7050252910183852e-01	   8.2129584455810190e-01	  -3.4905372857681172e-01	   9.3710271292245517e-01	  -9.6877459899283402e-01	   2.4794309094280803e-01	
   9.0369347763721342e-01	  -4.2817998374043509e-01	   6.3332380304808156e-01	  -7.7388691712207858e-01	   2.4096770245667945e-01	  -9.7053313512355111e-01	
  -3.5460488704306242e-01	  -9.3501624268521499e-01	  -7.4851074817035390e-01	   6.6312265824163863e-01	   8.8545602565399539e-01	   4.6472317204227193e-01	
  -7.3605514352578749e-01	   6.7692158016215764e-01	   8.3554348621535240e-02	  -9.9650322168391958e-01	   6.1305392739213194e-01	   7.9004106355877646e-01	
  -3.0359600299323874e-01	   9.5280085378138146e-01	  -8.1565893393305877e-01	  -5.7853306171314545e-01	   7.9885758728884415e-01	  -6.0152020351027846e-01	
   2.8354922922069647e-01	   9.5895768134383752e-01	  -8.3919966921669786e-01	   5.4382342280062279e-01	  -7.5945806795801274e-01	  -6.5055625660928240e-01	
   2.9866639992144334e-01	  -9.5435757531334364e-01	  -8.2159676311592900e-01	  -5.7006908251318822e-01	  -7.8943309477533408e-01	   6.1383661415187540e-01	
  -8.1328974073565830e-01	  -5.8185891555782299e-01	   3.2288040477174851e-01	   9.4643977315750627e-01	   2.8809909936477923e-01	  -9.5760059990854385e-01	
  -4.1471464661165314e-01	   9.0995151622807446e-01	  -6.5602352377154327e-01	  -7.5474044297252774e-01	   9.5883977427134714e-01	  -2.8394768404632570e-01	
   9.8846832432807286e-01	  -1.5142777750482819e-01	   9.5413925639989650e-01	  -2.9936312297384354e-01	   8.9780453957040507e-01	  -4.4039415155832046e-01	
  -9.8808789609103775e-01	  -1.5389057670431466e-01	   9.5263538080322685e-01	   3.0411483232800546e-01	  -8.9448708222845219e-01	  -4.4709379298580104e-01	
   9.2742645465561502e-01	   3.7400557643558807e-01	   7.2023965759016695e-01	   6.9372533155017413e-01	   4.0851216962683046e-01	   9.1275287305315000e-01	
   1.5959989503334510e-01	  -9.8718178341445562e-01	  -9.4905574701069040e-01	  -3.1510821802355504e-01	  -4.6253829024074256e-01	   8.8659930637304840e-01	
  -9.9853341385110395e-01	   5.4138908585785503e-02	   9.9413795715427988e-01	  -1.0811901842467447e-01	  -9.8682652254134717e-01	   1.6178199655385614e-01	
   3.6066334016944035e-01	   9.3269606789019033e-01	  -7.3984391011564521e-01	   6.7277855841635825e-01	  -8.9433249182209573e-01	  -4.4740294374454115e-01	
   9.9989020309951415e-01	  -1.4818290914016060e-02	   9.9956083650877514e-01	  -2.9633327823206403e-02	   9.9901197255464480e-01	  -4.4441857437303722e-02	
  -5.8333972425163449e-01	  -8.1222827216862326e-01	  -3.1942953222005416e-01	   9.4761003263245236e-01	   9.5601159473778408e-01	  -2.9332887809917180e-01	
   4.5179081166366136e-01	   8.9212390534963815e-01	  -5.9177012499258019e-01	   8.0610676660493674e-01	  -9.8650342184106954e-01	  -1.6374064460561030e-01	
  -7.1127006970949680e-01	  -7.0291883452888615e-01	   1.1810224129104893e-02	   9.9993025687095816e-01	   6.9446955183031067e-01	  -7.1952209248959642e-01	
   3.4011237864955951e-01	   9.4038479883999537e-01	  -7.6864713977867727e-01	   6.3967302155871675e-01	  -8.6296519275417227e-01	  -5.0526337299942314e-01	
   8.1502833751667014e-01	  -5.7942109820476229e-01	   3.2854238191037449e-01	  -9.4448922878382136e-01	  -2.7948563485231043e-01	  -9.6014987367139770e-01	
  -9.8352978308667771e-01	   1.8074613628366357e-01	   9.3466166843705467e-01	  -3.5553841642565343e-01	  -8.5500539294797939e-01	   5.1861910688854440e-01	
  -2.5232919086430927e-01	   9.6764145190135531e-01	  -8.7265995887552594e-01	  -4.8832836921006884e-01	   6.9272435350979533e-01	  -7.2120244734362637e-01	
   8.9671621120814737e-01	  -4.4260596082351322e-01	   6.0819992688698932e-01	  -7.9378388049560489e-01	   1.9404925698220019e-01	  -9.8099178684872590e-01	
  -8.2279780676105430e-01	  -5.6833420554212533e-01	   3.5399246162160247e-01	   9.3524827565469393e-01	   2.4026936469665233e-01	  -9.7070625442935465e-01	
   2.1393308320642099e-01	   9.7684831775961745e-01	  -9.0846527181958914e-01	   4.1796034488664119e-01	  -6.0263463637906867e-01	  -7.9801722728038127e-01	
   3.7201595038692459e-01	  -9.2822633697698609e-01	  -7.2320826531542659e-01	  -6.9063000584933432e-01	  -9.1010597068491961e-01	   4.1437558099345129e-01	
  -9.9340208975973776e-01	  -1.1468342539785706e-01	   9.7369542387802832e-01	   2.2785350890207237e-01	  -9.4114004798011619e-01	  -3.3801687840695838e-01	
  -6.5364387791517209e-01	   7.5680227329469330e-01	  -1.4549936172803127e-01	  -9.8935834546272239e-01	   8.4385341198335728e-01	   5.3657377785729177e-01	
   1.9768500977686368e-01	   9.8026559508610789e-01	  -9.2184127381904268e-01	   3.8756762749704066e-01	  -5.6215341223213144e-01	  -8.2703297462421121e-01	
  -2.9365533827606582e-01	  -9.5591136738819538e-01	  -8.2753308460393871e-01	   5.6141695190463425e-01	   7.7967435406407803e-01	   6.2618519753724833e-01	
  -1.5200016956052470e-01	   9.8838046745854491e-01	  -9.5379189690714350e-01	  -3.0046799728801898e-01	   4.4195322967120509e-01	  -8.9703809438796467e-01	
   6.3639881748014293e-01	   7.7136019155118163e-01	  -1.8999309021975136e-01	   9.8178542750885711e-01	  -8.7822157337063866e-01	   4.7825397862056496e-01	
   4.9207355491937901e-02	  -9.9878858431876871e-01	  -9.9515727233098006e-01	  -9.8295489859726082e-02	  -1.4714547083189350e-01	   9.8911486209320520e-01	
  -9.2875624012527991e-01	   3.7069103904512363e-01	   7.2517630714329329e-01	  -6.8856323134336472e-01	  -4.1826780077540132e-01	   9.0832375661682940e-01	
   5.4619358767761217e-01	   8.3765897880931151e-01	  -4.0334512955971707e-01	   9.1504792577244554e-01	  -9.8680263445063854e-01	   1.6192764013990760e-01	
   9.6635606703420618e-01	  -2.5720799308377018e-01	   8.6768809658763846e-01	  -4.9710900921238688e-01	   7.1063524582744853e-01	  -7.0356062097573491e-01	
   9.4640727561402116e-01	   3.2297564716994720e-01	   7.9137346267030750e-01	   6.1133300465557017e-01	   5.5151592998405896e-01	   8.3416435968807645e-01	
  -1.6414404311452752e-01	  -9.8643638067034822e-01	  -9.4611346622003223e-01	   3.2383531159698425e-01	   4.7474182229543960e-01	   8.8012510597278459e-01	
  -8.6296519275459205e-01	   5.0526337299870638e-01	   4.8941784781194025e-01	  -8.7204940814332788e-01	   1.8264058005454838e-02	   9.9983319818116334e-01	
   6.4692100586988832e-01	   7.6255702223787303e-01	  -1.6298642432858382e-01	   9.8662831171854315e-01	  -8.5779968900945602e-01	   5.1398413743546656e-01	
   4.3837114678866551e-01	  -8.9879404629936788e-01	  -6.1566147532638060e-01	  -7.8801075360615758e-01	  -9.7814760073351981e-01	   2.0791169081910421e-01	
   9.0501404555094489e-01	  -4.2538168432069606e-01	   6.3810084528897537e-01	  -7.6995279806069616e-01	   2.4996640937795972e-01	  -9.6825450899166499e-01	
  -1.3349147352785707e-02	  -9.9991089616272988e-01	  -9.9964360052990719e-01	   2.6695915785064583e-02	   4.0037926800270789e-02	   9.9919816073566514e-01	
  -5.5778044127234228e-01	   8.2998854168839653e-01	  -3.7776195866806234e-01	  -9.2590275006788325e-01	   9.7919690527589454e-01	   2.0291234732788174e-01	
   6.3689182933518018e-01	   7.7095317479473924e-01	  -1.8873759545217542e-01	   9.8202755565357280e-01	  -8.7730269419889850e-01	   4.7993747796077979e-01	
   3.0559054911861866e-01	  -9.5216301980773288e-01	  -8.1322883257876222e-01	  -5.8194404014697454e-01	  -8.0262064013229351e-01	   5.9648982223808933e-01	
  -9.9736302165765933e-01	   7.2574120937861933e-02	   9.8946599394019319e-01	  -1.4476548910546874e-01	  -9.7635056542972132e-01	   2.1619337035409619e-01	
   2.4902610352722016e-01	   9.6849677323264749e-01	  -8.7597199952410043e-01	   4.8236195543362387e-01	  -6.8530589120808938e-01	  -7.2825533672983567e-01	
   7.9573565726826578e-01	  -6.0564408999992814e-01	   2.6639047249631798e-01	  -9.6386519605346699e-01	  -3.7178286182454290e-01	  -9.2831972059929480e-01	
  -8.8965709099472801e-01	  -4.5662923739375055e-01	   5.8297947911440362e-01	   8.1248687800573038e-01	  -1.4764656400235626e-01	  -9.8904018732218268e-01	
   5.4592993832939019e-01	  -8.3783083163349170e-01	  -4.0392100487133648e-01	  -9.1479386848826760e-01	  -9.8695507688809825e-01	  -1.6099588878231669e-01	
  -7.0710678118654746e-01	   7.0710678118654757e-01	  -1.8369701987210297e-16	  -1.0000000000000000e+00	   7.0710678118654768e-01	   7.0710678118654735e-01	
   9.1027569417677601e-01	  -4.1400260940118311e-01	   6.5720367881802289e-01	  -7.5371302532731721e-01	   2.8619737572643567e-01	  -9.5817068527862059e-01	
   7.1124021678847821e-02	  -9.9746747994118923e-01	  -9.8988274708045354e-01	  -1.4188779733456569e-01	  -2.1193290560458219e-01	   9.7728421839401425e-01	
  -9.5991985900309817e-01	  -2.8027462298872535e-01	   8.4289227141705569e-01	   5.3808235316296749e-01	  -6.5829820166382447e-01	  -7.5275725017177664e-01	
   8.2850964924395321e-01	   5.5997478613743112e-01	   3.7285647778067660e-01	   9.2788902729636147e-01	  -2.1067926999514477e-01	   9.7755523894781149e-01	
   9.6504026226909012e-01	  -2.6210168293928543e-01	   8.6260541560078863e-01	  -5.0587735368979592e-01	   6.9985765074315420e-01	  -7.1428234522230294e-01	
  -7.5779362561831287e-01	  -6.5249430723359747e-01	   1.4850235805549550e-01	   9.8891205354771428e-01	   5.3272534497082691e-01	  -8.4628819371755004e-01	
   9.8377585503599152e-01	   1.7940197058060356e-01	   9.3562986590359254e-01	   3.5298265400615014e-01	   8.5712428761704207e-01	   5.1510965393494434e-01	
  -6.3839905085277104e-01	   7.6970556180287608e-01	  -1.8489330374056209e-01	  -9.8275860018210992e-01	   8.7447047008678713e-01	   4.8507875334443740e-01	
   6.3463571341290326e-01	   7.7281143318463874e-01	  -1.9447502252179052e-01	   9.8090747046556281e-01	  -8.8147730273111713e-01	   4.7222639143727924e-01	
  -9.6099020145993796e-01	  -2.7658241574255565e-01	   8.4700433460402424e-01	   5.3158598284942971e-01	  -6.6693553083718626e-01	  -7.4511542576094913e-01	
   9.5970726233903236e-01	  -2.8100172706536808e-01	   8.4207605877256075e-01	  -5.3935879638888884e-01	   6.5658575575267986e-01	  -7.5425138073634468e-01	
   5.7769741913148787e-01	   8.1625099811811441e-01	  -3.3253138385763592e-01	   9.4309218995267141e-01	  -9.6190246360104470e-01	   2.7339285015932824e-01	
  -9.9298109601352902e-01	  -1.1827317092126505e-01	   9.7202291408045849e-01	   2.3488604578078642e-01	  -9.3741966113422670e-01	  -3.4820163543411387e-01	
   9.1706915963550784e-01	  -3.9872817362888141e-01	   6.8203168710915318e-01	  -7.3132262222567823e-01	   3.3387129264845056e-01	  -9.4261867154499579e-01	
  -8.6676192460250190e-01	  -4.9872213311559255e-01	   5.0255246788126628e-01	   8.6454671188227228e-01	  -4.4247639465044997e-03	  -9.9999021068409355e-01	
   1.0856649668587229e-01	   9.9408918905566845e-01	  -9.7642663159471299e-01	   2.1584956129814739e-01	  -3.2058093401192239e-01	  -9.4722112769302369e-01	
   7.1615218831411120e-01	  -6.9794415476663296e-01	   2.5747913654180415e-02	  -9.9966846751433391e-01	  -6.7927333889818176e-01	  -7.3388536643137670e-01	
  -7.7950711684910179e-01	  -6.2639337063988854e-01	   2.1526269043679858e-01	   9.7655618072178063e-01	   4.4390951847396226e-01	  -8.9607161511132294e-01	
  -2.6323154550478973e-02	   9.9965348573118651e-01	  -9.9861418306902316e-01	  -5.2628066403654104e-02	   7.8896505504930936e-02	  -9.9688281227991404e-01	
   9.1962628511275346e-01	  -3.9279447008545909e-01	   6.9142500854056677e-01	  -7.2244823867504659e-01	   3.5207893896367709e-01	  -9.3597030975251094e-01	
  -9.6409044703027047e-01	  -2.6557411384578378e-01	   8.5894078011005337e-01	   5.1207493227449918e-01	  -6.9210275430739066e-01	  -7.2179898689325106e-01	
   1.0000000000000000e+00	  -2.4492935982947064e-16	   1.0000000000000000e+00	  -4.8985871965894128e-16	   1.0000000000000000e+00	  -7.3478807948841188e-16	
  -9.9503077536537332e-01	  -9.9567846596097076e-02	   9.8017248784843214e-01	   1.9814614319995005e-01	  -9.5557280578589121e-01	  -2.9475517441171295e-01	
   9.8495967234007598e-01	  -1.7278438547429639e-01	   9.4029111227253948e-01	  -3.4037130340448868e-01	   8.6733797935641577e-01	  -4.9771962947620391e-01	
  -1.1913364226832111e-01	  -9.9287822782045321e-01	  -9.7161435055976741e-01	   2.3657039921833298e-01	   3.5063755519303003e-01	   9.3651124119695162e-01	
   5.0890820271761983e-01	   8.6082079505941422e-01	  -4.8202488241344382e-01	   8.7615752735127805e-01	  -9.9952103586601537e-01	   3.0946710024291467e-02	
