  -1.4855241762614238e-01	   9.8890453493622332e-01	  -9.5586435843485640e-01	  -2.9380831893246390e-01	   4.3254434036246103e-01	  -9.0161266274404306e-01	  -9.4330142652411297e-01	   3.3193737167961890e-01	   7.7963516256485310e-01	  -6.2623399244409839e-01	  -5.2756049550745632e-01	   8.4951746514119830e-01	   2.1566197341504981e-01	  -9.7646808100558324e-01	  -1.8812466470843972e-01	  -9.8214515756497889e-01	   4.6838407962913170e-01	  -8.8352495943802922e-01	
   9.6964909198266680e-01	   2.4450079430789140e-01	   8.8043872316562033e-01	   4.7415994637937536e-01	   7.3778412494517787e-01	   6.7503672861473119e-01	   5.4322635329446589e-01	   8.3958628447968120e-01	  -4.0981025817279215e-01	   9.1217079118789446e-01	  -9.8846581747420492e-01	   1.5144414047777427e-01	  -6.6411110459269895e-01	  -7.4763389486878229e-01	   3.2145942676774086e-01	   9.4692335325629995e-01	   7.3201845365832752e-01	  -6.8128480351734766e-01	
   9.6423067839797605e-01	  -2.6506451825202659e-01	   8.5948160232764215e-01	  -5.1116668050676850e-01	   6.9324637856794702e-01	  -7.2070067198693988e-01	   6.1359054430864890e-01	  -7.8962436888372178e-01	  -2.4701328787003204e-01	  -9.6901209260547239e-01	  -9.1672057981993338e-01	  -3.9952894580318593e-01	  -8.7796887123127332e-01	   4.7871772596059542e-01	   3.8234142385908682e-01	  -9.2402112291949590e-01	   8.0094422973553614e-01	   5.9873895885715400e-01	
   1.4026107822158035e-01	  -9.9011455394621872e-01	  -9.6065365987223938e-01	  -2.7774906979875147e-01	  -4.0974571448395641e-01	   9.1219978593619067e-01	  -6.9840802156276005e-01	   7.1569982214388683e-01	  -2.4452470833582592e-02	  -9.9970099363266252e-01	   7.3256362511716677e-01	   6.8069856409073992e-01	  -9.9880415334026562e-01	   4.8890318778212434e-02	   6.1066534801838879e-01	   7.9188877547896841e-01	  -8.0658427230437613e-01	   5.9111911800517847e-01	
   7.4314482547735272e-01	  -6.6913060635890431e-01	   1.0452846326752997e-01	  -9.9452189536828628e-01	  -5.8778525229262457e-01	  -8.0901699437483743e-01	   8.7622557888435670e-01	   4.8190116715855136e-01	   5.3554253018245190e-01	   8.4450825831709753e-01	   6.2286548168267314e-02	   9.9805830787448591e-01	  -4.2638839673155515e-01	   9.0454017883822824e-01	   9.7361732508467269e-01	  -2.2818699414069779e-01	   3.2870768471294282e-01	  -9.4443171167144557e-01	
   4.7100491468061673e-01	  -8.8213058576760905e-01	  -5.5630874069340996e-01	  -8.3097568257327026e-01	  -9.9505321657337842e-01	   9.9343324823429113e-02	   4.3260673580733500e-01	  -9.0158272617332391e-01	  -6.2570282426824542e-01	  -7.8006152046023991e-01	  -9.7397324859156731e-01	   2.2666298998290182e-01	  -2.1699195140548252e-01	   9.7617339290990757e-01	  -5.9155379966803878e-01	  -8.0626552828352138e-01	   9.9907359704642595e-01	   4.3034261754046559e-02	
  -2.0791169081780236e-01	  -9.7814760073379647e-01	  -9.1354545764256512e-01	   4.0673664307588059e-01	   5.8778525229257994e-01	   8.0901699437486985e-01	  -8.3502075190296554e-01	  -5.5021845106412615e-01	   3.9451931221718778e-01	   9.1888764943690315e-01	   1.7615712644729076e-01	  -9.8436206083017708e-01	  -6.8870902457535421e-01	   7.2503784692143081e-01	  -3.6458428139174170e-01	   9.3117039351671149e-01	   7.1180543418393905e-01	   7.0237669655692170e-01	
  -8.4049207659210912e-01	  -5.4182383593367700e-01	   4.1285386162823173e-01	   9.1079728202199683e-01	   1.4649127761414246e-01	  -9.8921196190855687e-01	  -7.5438594503676015e-01	   6.5643114332806785e-01	   1.3819630813801137e-01	  -9.9040485682221080e-01	   5.4587924000619004e-01	   8.3786386443757332e-01	  -9.6180356083404761e-01	  -2.7374058954957059e-01	   9.8972544960019027e-01	  -1.4298088828127076e-01	   2.7838536939150421e-01	   9.6046946130980959e-01	
  -8.4391202966454704e-01	  -5.3648158047361205e-01	   4.2437502762507073e-01	   9.0548651891025989e-01	   1.2764164786050464e-01	  -9.9182035154127324e-01	   3.3800338532890711e-01	   9.4114489400208634e-01	  -7.7150742301239672e-01	   6.3622032051544131e-01	  -8.5954762689804964e-01	  -5.1105564970356332e-01	   1.9044740752645836e-01	  -9.8169739989797833e-01	   2.1966177724250333e-01	  -9.7557608807240903e-01	  -7.9015202313531530e-01	   6.1291090733904230e-01	
  -9.5912474854709107e-01	  -2.8298359797783224e-01	   8.3984056655104122e-01	   5.4283314450687881e-01	  -6.5189899587873723e-01	  -7.5830580847854134e-01	   8.0579224897722257e-01	  -5.9219832107852999e-01	   2.9860229702354063e-01	  -9.5437763396480813e-01	  -3.2456941604049411e-01	  -9.4586187901359708e-01	  -8.2167333642453044e-01	  -5.6995870745956712e-01	  -9.4043769979670766e-01	   3.3996607595623052e-01	  -6.0527287656623963e-01	  -7.9601805563267825e-01	
  -9.9730730470417894e-01	   7.3335802877489795e-02	   9.8924372003262795e-01	  -1.4627666381213264e-01	  -9.7585267153837219e-01	   2.1842976777770437e-01	  -9.3395229990321948e-01	  -3.5739767977070963e-01	   7.4453379698902655e-01	   6.6758477000385719e-01	  -4.5676580420393714e-01	  -8.8958698288021876e-01	   1.0866114971779417e-01	   9.9407884724603568e-01	   9.5764749673128580e-01	   2.8794317495697291e-01	   9.0522740514621192e-01	  -4.2492745848233437e-01	
  -4.9565450892644441e-01	   8.6851977972921568e-01	  -5.0865321556177046e-01	  -8.6097148982917604e-01	   9.9988702847269684e-01	  -1.5030977747316673e-02	  -9.6143746827082033e-01	   2.7502362553968956e-01	   8.4872401079000914e-01	  -5.2883603650708255e-01	  -6.7055266011838499e-01	   7.4186193459979988e-01	   4.4066489298295930e-01	  -8.9767168390916563e-01	   2.3767735752519634e-01	  -9.7134415822603271e-01	   7.1540427487331892e-01	  -6.9871075810594241e-01	
   1.4959407015302902e-02	   9.9988810181027277e-01	  -9.9955243228350099e-01	   2.9915466169476997e-02	  -4.4864830350632226e-02	  -9.9899306654130937e-01	   8.6101272431371234e-01	   5.0858341358117376e-01	   4.8268582286024142e-01	   8.7579358093658788e-01	  -2.9815453656707434e-02	   9.9955542053617252e-01	  -5.3402879281946325e-01	   8.4546629054018874e-01	  -4.9564626422950520e-01	   8.6852448483352240e-01	   5.2140674380623242e-01	   8.5330827226353656e-01	
   6.0232014773157105e-01	   7.9825462080505272e-01	  -2.7442087927323683e-01	   9.6160968226141708e-01	  -9.3289859682053833e-01	   3.6013915095455901e-01	   4.5705628609365978e-01	  -8.8943777260821943e-01	  -5.8219910268454134e-01	  -8.1304625011945963e-01	  -9.8925180537377500e-01	   1.4622197360426634e-01	  -3.2208840966662988e-01	   9.4670959452116110e-01	   9.8529202166464114e-01	  -1.7087899825316263e-01	  -4.3470360214148812e-01	   9.0057358293768242e-01	
   7.9638761850689699e-01	  -6.0478654175577773e-01	   2.6846647782217392e-01	  -9.6328902738781164e-01	  -3.6878086066342547e-01	  -9.2951636715463126e-01	  -6.9359104217461987e-01	  -7.2036897921490528e-01	  -3.7862932430249241e-02	   9.9928294208786650e-01	   7.4611382370278756e-01	  -6.6581841524518215e-01	  -9.9713279669556476e-01	  -7.5671565029947110e-02	  -9.8803678202268463e-01	  -1.5421840801362868e-01	  -1.1669785456764008e-01	   9.9316746359277697e-01	
   8.1182688687625792e-01	  -5.8389819810032251e-01	   3.1812578851039303e-01	  -9.4804851283288283e-01	  -2.9530074983336274e-01	  -9.5540434746124836e-01	  -9.5447787867616229e-01	   2.9828171100128353e-01	   8.2205604176429348e-01	  -5.6940658952880241e-01	  -6.1479073511604809e-01	   7.8869027635407629e-01	   3.5155227160235575e-01	  -9.3616825428510630e-01	  -6.0070465125799277e-01	   7.9947102633992506e-01	  -9.4903695841785407e-01	   3.1516480063133373e-01	
   8.5975512567501300e-01	  -5.1070649484370423e-01	   4.7835775224891491e-01	  -8.7816505331478878e-01	  -3.7214066870248738e-02	  -9.9930731670841710e-01	  -3.7039876952785311e-01	   9.2887283926932229e-01	  -7.2560950306450467e-01	  -6.8810671342640062e-01	   9.0792850371347222e-01	  -4.1912507935533450e-01	   5.3018301875034861e-02	   9.9859354076936013e-01	   1.5592915125346579e-01	   9.8776824194209334e-01	  -7.9283363254404460e-01	  -6.0943812738211167e-01	
  -2.9318039888358516e-01	  -9.5605713935437031e-01	  -8.2809050742092383e-01	   5.6059442694282724e-01	   7.7874020943833944e-01	   6.2734654394834377e-01	   0.0000000000000000e+00	   0.0000000000000000e+00	   0.0000000000000000e+00	   0.0000000000000000e+00	   0.0000000000000000e+00	   0.0000000000000000e+00	   0.0000000000000000e+00	   0.0000000000000000e+00	   0.0000000000000000e+00	   0.0000000000000000e+00	   0.0000000000000000e+00	   0.0000000000000000e+00	
  -7.8279544779635490e-01	  -6.2227910692012167e-01	   2.2553742618139169e-01	   9.7423450431170489e-01	   4.2969610675135445e-01	  -9.0297356320256050e-01	  -1.7132399554234268e-01	  -9.8521474235387252e-01	  -9.4129617710281466e-01	   3.3758185225457027e-01	   4.9385723964231631e-01	   8.6954299885219688e-01	   7.7207698605674702e-01	  -6.3552901397302841e-01	  -4.7896690618767590e-01	   8.7783295835654640e-01	   7.4719019380533436e-01	  -6.6461027247639415e-01	
  -9.9829238809956011e-01	   5.8414962659212470e-02	   9.9317538427504559e-01	  -1.1663042514762370e-01	  -9.8466646423970705e-01	   1.7444756863216448e-01	   0.0000000000000000e+00	   0.0000000000000000e+00	   0.0000000000000000e+00	   0.0000000000000000e+00	   0.0000000000000000e+00	   0.0000000000000000e+00	   0.0000000000000000e+00	   0.0000000000000000e+00	   0.0000000000000000e+00	   0.0000000000000000e+00	   0.0000000000000000e+00	   0.0000000000000000e+00	
   7.1169211007972258e-02	   9.9746425670522287e-01	  -9.8986988680900545e-01	   1.4197748831672841e-01	  -2.1206572869746768e-01	  -9.7725540505643249e-01	   6.1598215385156396e-01	   7.8776010697190557e-01	  -2.4113197227277636e-01	   9.7049233482178576e-01	  -9.1304813713768473e-01	   4.0785181042800789e-01	  -8.8371074389568205e-01	  -4.6803346154237763e-01	  -7.4192358567815153e-01	   6.7048444651197880e-01	   8.2960151344736588e-01	   5.5835591595848610e-01	
   3.8696778881583982e-01	   9.2209323304044455e-01	  -7.0051186083795924e-01	   7.1364075894341938e-01	  -9.2911884047130855e-01	  -3.6978126004605905e-01	   9.4986334614842249e-01	  -3.1266535408279911e-01	   8.0448075271255570e-01	  -5.9397871890753784e-01	   5.7843021321867782e-01	  -8.1573187288213456e-01	   2.9437856296992038e-01	  -9.5568889376395105e-01	   6.5587312594221325e-01	   7.5487114308787140e-01	   7.9259911530326077e-02	   9.9685398450535612e-01	
   2.1144244406573559e-01	   9.7739045056083307e-01	  -9.1058418569501653e-01	   4.1332365134618609e-01	  -5.9651473556765977e-01	  -8.0260212449920965e-01	  -9.9901102173969225e-01	  -4.4463225733363379e-02	   9.9604604311476796e-01	   8.8838505139459858e-02	  -9.9111092872403150e-01	  -1.3303806584503444e-01	   9.8421544000917238e-01	   1.7697448304077992e-01	  -1.6777539985232820e-01	  -9.8582524577350494e-01	  -2.5469126431816830e-01	  -9.6702241953328716e-01	
   9.7899317230940364e-01	  -2.0389303218003879e-01	   9.1685526285685937e-01	  -3.9921977277143900e-01	   8.1619691235621405e-01	  -5.7777383140826188e-01	  -9.5609175401575819e-01	   2.9306749717952502e-01	   8.2822288419385826e-01	  -5.6039883484676067e-01	  -6.2762238611403398e-01	   7.7851791273452819e-01	   3.7190629180478618e-01	  -9.2827027859132349e-01	  -8.7625287864940082e-01	   4.8185152553316507e-01	  -9.9576171991609741e-01	  -9.1970631995955662e-02	
   1.6050616139225082e-01	  -9.8703483836951000e-01	  -9.4847554431024950e-01	  -3.1685034613422153e-01	  -4.6497849897557930e-01	   8.8532197278188973e-01	  -3.1452589441102241e-01	   9.4924889346522101e-01	  -8.0214692348989280e-01	  -5.9712671447164389e-01	   8.1911785153043914e-01	  -5.7362526557340321e-01	   2.8687937372859984e-01	   9.5796671389411348e-01	   8.8645838416350287e-01	   4.6280831144895351e-01	  -9.8742507210425812e-01	   1.5808771925706502e-01	
  -2.4698320660106188e-01	  -9.6901976019947977e-01	  -8.7799859131411440e-01	   4.7866321526771904e-01	   6.8068502154901289e-01	   7.3257620862188788e-01	   9.6212471294211510e-01	   2.7260967837927658e-01	   8.5136792650789472e-01	   5.2456901711180759e-01	   6.7611953085694887e-01	   7.3679195163477418e-01	   4.4965469257270418e-01	   8.9320247281752807e-01	   2.6535518418574142e-02	  -9.9964787113375952e-01	  -5.0179281192371361e-01	  -8.6498784610056378e-01	
  -4.4081051166646851e-01	  -8.9760018538564612e-01	  -6.1137218560869244e-01	   7.9134319398352726e-01	   9.7980908358009833e-01	   1.9993538889833384e-01	   0.0000000000000000e+00	   0.0000000000000000e+00	   0.0000000000000000e+00	   0.0000000000000000e+00	   0.0000000000000000e+00	   0.0000000000000000e+00	   0.0000000000000000e+00	   0.0000000000000000e+00	   0.0000000000000000e+00	   0.0000000000000000e+00	   0.0000000000000000e+00	   0.0000000000000000e+00	
   4.1678186049540433e-01	  -9.0900653504911022e-01	  -6.5258576152397862e-01	  -7.5771486976049829e-01	  -9.6075367613695251e-01	   2.7740290876148327e-01	   8.7973165387123375e-01	   4.7547052188015165e-01	   5.4785556564603244e-01	   8.3657293716128889e-01	   8.4200111825455018e-02	   9.9644886530548116e-01	  -3.9970855838133168e-01	   9.1664227938532139e-01	   7.9886200704942067e-01	  -6.0151433373858287e-01	  -6.5549616175116940e-02	  -9.9784931117844389e-01	
   9.3093626920601058e-01	  -3.6518168447608940e-01	   7.3328467464641178e-01	  -6.7992174985707443e-01	   4.3434632935653794e-01	  -9.0074594985184464e-01	   8.3548249435648259e-01	  -5.4951706217720853e-01	   3.9606199675225989e-01	  -9.1822377159852098e-01	  -1.7367676442370641e-01	  -9.8480271196789071e-01	  -6.8626978945722572e-01	  -7.2734708088940259e-01	   5.7710738986893151e-01	  -8.1666826836768258e-01	   9.7845452269738065e-01	   2.0646245908891270e-01	
  -3.2493513699751349e-02	  -9.9947194636340042e-01	  -9.9788834313488817e-01	   6.4952710763352600e-02	   9.7343310796702678e-02	   9.9525086276935049e-01	  -3.7039876952785317e-01	  -9.2887283926932229e-01	  -7.2560950306450467e-01	   6.8810671342640062e-01	   9.0792850371347211e-01	   4.1912507935533461e-01	   5.3018301875034771e-02	  -9.9859354076936013e-01	  -9.1634678709658335e-01	   4.0038552143873662e-01	   9.4041790208063203e-01	   3.4002083678248729e-01	
   4.3729745838629624e-02	  -9.9904339711990930e-01	  -9.9617541865777770e-01	  -8.7375827675629528e-02	  -1.3085474157581892e-01	   9.9140155164651911e-01	  -9.9763021384948314e-01	   6.8803752910975929e-02	   9.9053208717073071e-01	  -1.3728140546044781e-01	  -9.7873926204833861e-01	   2.0510840286315324e-01	   9.6230763142960829e-01	  -2.7196327416093746e-01	   2.5111819350204619e-02	   9.9968464854119010e-01	  -1.1236405073535585e-01	   9.9366710728610841e-01	
   2.4075667002812937e-01	  -9.7058550671075161e-01	  -8.8407245167393289e-01	  -4.6734986914649029e-01	  -6.6644934908537012e-01	   7.4555031024316964e-01	  -6.6420643766872262e-02	   9.9779171077013573e-01	  -9.9117659616318854e-01	  -1.3254793554920244e-01	   1.9808981897450412e-01	  -9.8018387235184001e-01	   9.6486208956328889e-01	   2.6275682317223237e-01	   9.5245096017518294e-01	   3.0469192385321270e-01	  -9.8443338620405674e-01	  -1.7575809548016422e-01	
  -3.2493513699751349e-02	  -9.9947194636340042e-01	  -9.9788834313488817e-01	   6.4952710763352600e-02	   9.7343310796702678e-02	   9.9525086276935049e-01	   9.3368192625086821e-01	  -3.5810342164306153e-01	   7.4352387881506343e-01	  -6.6870938503344102e-01	   4.5474768852026437e-01	  -8.9062031179705115e-01	   1.0565551673639416e-01	  -9.9440279152019961e-01	  -3.8825293029082697e-01	  -9.2155285367719753e-01	   3.2757571736714136e-01	  -9.4482493055137085e-01	
  -1.1409895227476517e-02	  -9.9993490502677118e-01	  -9.9973962858179599e-01	   2.2818305001304284e-02	   3.4223744061225678e-02	   9.9941419608810422e-01	  -9.6505795029361163e-01	  -2.6203654816665001e-01	   8.6267369484981382e-01	   5.0576090815144104e-01	  -7.0000226515434449e-01	  -7.1414062255188004e-01	   4.8841180757165936e-01	   8.7261326269120187e-01	  -2.5100828080326926e-01	   9.6798493943252395e-01	   2.7303070100585553e-01	   9.6200532031182195e-01	
   1.8217165028577562e-01	  -9.8326674398769176e-01	  -9.3362697966431418e-01	  -3.5824665084671814e-01	  -5.2233238555932116e-01	   8.5274197679949393e-01	  -9.1694782433413824e-01	   3.9900712706528224e-01	   6.8158662510221946e-01	  -7.3173743411265124e-01	  -3.3301092163131829e-01	   9.4292296932159836e-01	  -7.0879344963533125e-02	  -9.9748489635559923e-01	   2.2528854027246137e-01	   9.7429208845289483e-01	  -5.5937233704226474e-01	   8.2891651482635753e-01	
  -9.3715923435441739e-01	  -3.4890194820929588e-01	   7.5653486107151569e-01	   6.5395336529717663e-01	  -4.8082802797399693e-01	  -8.7681492204149747e-01	  -4.0866921055676825e-03	   9.9999164943895125e-01	  -9.9996659789526854e-01	  -8.1733159587915345e-03	   1.2259803308467839e-02	  -9.9992484578734098e-01	   9.9986639381247555e-01	   1.6346085905671753e-02	   3.5272891592697314e-01	  -9.3572555371165445e-01	  -3.4506915343758127e-01	   9.3857726338638259e-01	
   1.2388341643863511e-01	   9.9229677976474950e-01	  -9.6930579826298346e-01	   2.4585823039662610e-01	  -3.6404524416382833e-01	  -9.3138126468256743e-01	   9.4527587345346842e-01	   3.2627216103551077e-01	   7.8709295386643552e-01	   6.1683440401278633e-01	   5.4276408545686228e-01	   8.3988519902316172e-01	   2.3903063605238142e-01	   9.7101202620173244e-01	  -2.0665481004199251e-01	   9.7841391521508314e-01	   4.4086281940285366e-01	   8.9757449521929200e-01	
   8.5844879360181481e-01	   5.1289927740599206e-01	   4.7386866247282233e-01	   8.8059553185683292e-01	  -4.4864830350814990e-02	   9.9899306654130116e-01	   2.8204913189256930e-01	  -9.5939996205891531e-01	  -8.4089657439729615e-01	  -5.4119585287296190e-01	  -7.5639742953295463e-01	   6.5411232108556017e-01	   4.1421409766621470e-01	   9.1017947751779349e-01	   7.3420028429296924e-01	  -6.7893294407041638e-01	  -2.4995081027373883e-01	   9.6825853595178879e-01	
   8.6541734169790618e-01	  -5.0105171857656527e-01	   4.9789435062294091e-01	  -8.6723769268739703e-01	  -3.6445309728855898e-03	  -9.9999335867494021e-01	   0.0000000000000000e+00	   0.0000000000000000e+00	   0.0000000000000000e+00	   0.0000000000000000e+00	   0.0000000000000000e+00	   0.0000000000000000e+00	   0.0000000000000000e+00	   0.0000000000000000e+00	   0.0000000000000000e+00	   0.0000000000000000e+00	   0.0000000000000000e+00	   0.0000000000000000e+00	
  -5.5259835942680036e-01	  -8.3344769071538538e-01	  -3.8927010631761744e-01	   9.2112365311475464e-01	   9.8281840367682349e-01	  -1.8457514836548378e-01	   6.2110673387722204e-01	   7.8372598855235731e-01	  -2.2845285026473941e-01	   9.7355497800890345e-01	  -9.0489394122297073e-01	   4.2563711672968418e-01	  -8.9561859041183312e-01	  -4.4482281923111938e-01	   3.0997205314310400e-01	  -9.5074566855192599e-01	  -9.9641717748208603e-01	  -8.4574277523566124e-02	
  -8.2711743756899159e-01	   5.6202913133511612e-01	   3.6824651106138956e-01	  -9.2972818989805506e-01	   2.1795121632335590e-01	   9.7595966479315610e-01	   6.1010715005096861e-01	  -7.9231891650817277e-01	  -2.5553853091336987e-01	  -9.6679887216454530e-01	  -9.2191891969850337e-01	  -3.8738289262942999e-01	  -8.6940011843727349e-01	   4.9410872696326147e-01	  -5.9323950207208646e-02	   9.9823878352416895e-01	  -9.4993657497814621e-01	  -3.1244280039519051e-01	
   4.4497936181664904e-01	   8.9554082405954438e-01	  -6.0398673511449541e-01	   7.9699436874154406e-01	  -9.8250262569058833e-01	  -1.8624873291139388e-01	  -9.9763021384948314e-01	  -6.8803752910975680e-02	   9.9053208717073082e-01	   1.3728140546044734e-01	  -9.7873926204833872e-01	  -2.0510840286315252e-01	   9.6230763142960851e-01	   2.7196327416093652e-01	  -3.8230828630746588e-01	  -9.2403483387838181e-01	  -5.0554142546803471e-01	  -8.6280233375654902e-01	
   9.9641365173916019e-01	   8.4615806016556341e-02	   9.8568033074433703e-01	   1.6862468853561863e-01	   9.6787702386969598e-01	   2.5142407733775218e-01	  -9.4757763731400879e-01	   3.1952561910181904e-01	   7.9580675747519858e-01	  -6.0555066241959521e-01	  -5.6059973669973329e-01	   8.2808691283716696e-01	   2.6661679048637899e-01	  -9.6380261829419323e-01	  -9.7121621170565664e-01	   2.3819964340887062e-01	  -9.1714237609917759e-01	  -3.9855973449804827e-01	
  -4.9999999999989658e-01	  -8.6602540378449833e-01	  -5.0000000000020683e-01	   8.6602540378431925e-01	   1.0000000000000000e+00	   3.5833422283919165e-13	   9.3187258410240703e-01	   3.6278573152523841e-01	   7.3677302600339523e-01	   6.7614015422381202e-01	   4.4128458317506064e-01	   8.9736721393864893e-01	   8.5668983692399434e-02	   9.9632365485976060e-01	  -1.5175463241970788e-01	  -9.8841819668557263e-01	  -7.8011795168250631e-01	  -6.2563246516040927e-01	
  -2.8348121892684081e-01	   9.5897778833284375e-01	  -8.3927679703150504e-01	  -5.4370438472072102e-01	   7.5931963780585265e-01	  -6.5071782489984764e-01	   5.1961133203400500e-01	  -8.5440275258325737e-01	  -4.6000812724369400e-01	  -8.8791470472661360e-01	  -9.9766220352113288e-01	  -6.8338332327893589e-02	  -5.7678504573949885e-01	   8.1689596094685413e-01	   6.7205320824458714e-01	   7.4050285974340269e-01	  -9.6665331579098523e-01	   2.5608859222990349e-01	
   5.6991338498529753e-01	   8.2170477278314513e-01	  -3.5039746722920012e-01	   9.3660109703083394e-01	  -9.6930579826303409e-01	   2.4585823039642635e-01	   0.0000000000000000e+00	   0.0000000000000000e+00	   0.0000000000000000e+00	   0.0000000000000000e+00	   0.0000000000000000e+00	   0.0000000000000000e+00	   0.0000000000000000e+00	   0.0000000000000000e+00	   0.0000000000000000e+00	   0.0000000000000000e+00	   0.0000000000000000e+00	   0.0000000000000000e+00	
   9.8740428641437328e-01	  -1.5821749325065906e-01	   9.4993444965895535e-01	  -3.1244926204287587e-01	   8.8853440839748943e-01	  -4.5880998800562683e-01	  -6.7113388940458396e-01	   7.4133616024896265e-01	  -9.9158604985351201e-02	  -9.9507164116829250e-01	   8.0423128986808701e-01	   5.9431644129799488e-01	  -9.8033514211471817e-01	   1.9733983159746368e-01	  -5.4538813022537569e-01	   8.3818362392095724e-01	  -7.7997282808669588e-01	  -6.2581338068664005e-01	
  -8.6435307872162026e-01	  -5.0288542960047711e-01	   4.9421248939108708e-01	   8.6934113863883411e-01	   1.0004905225894959e-02	  -9.9994994968319328e-01	   8.6378057068177494e-01	   5.0386816302746018e-01	   4.9223374857466573e-01	   8.7046305881647434e-01	  -1.3416674176466799e-02	   9.9990999237633515e-01	  -5.1541187352826556e-01	   8.5694258887400576e-01	  -4.9322343798264279e-01	  -8.6990266135044214e-01	  -9.9999935323477795e-01	   1.1373346147427331e-03	
   5.2775347130367412e-02	   9.9860641032153863e-01	  -9.9442952547053842e-01	   1.0540359990265863e-01	  -1.5773807393715561e-01	  -9.8748098717423238e-01	   4.8032251291294215e-01	  -8.7709194705515148e-01	  -5.3858056717799307e-01	  -8.4257401613047100e-01	  -9.9770725577896469e-01	   6.7677409569276079e-02	  -4.1986194531646254e-01	   9.0758798299397725e-01	   9.0121882812418486e-01	   4.3336430844552837e-01	  -8.5052045341716276e-01	   5.2594197238769969e-01	
   9.9641365173917706e-01	  -8.4615806016358666e-02	   9.8568033074440398e-01	  -1.6862468853522752e-01	   9.6787702386984587e-01	  -2.5142407733717526e-01	   0.0000000000000000e+00	   0.0000000000000000e+00	   0.0000000000000000e+00	   0.0000000000000000e+00	   0.0000000000000000e+00	   0.0000000000000000e+00	   0.0000000000000000e+00	   0.0000000000000000e+00	   0.0000000000000000e+00	   0.0000000000000000e+00	   0.0000000000000000e+00	   0.0000000000000000e+00	
  -3.2493513699751349e-02	  -9.9947194636340042e-01	  -9.9788834313488817e-01	   6.4952710763352600e-02	   9.7343310796702678e-02	   9.9525086276935049e-01	  -5.3912290110087402e-01	   8.4222710566009285e-01	  -4.1869299501715440e-01	  -9.0812784117852319e-01	   9.9057686538939815e-01	   1.3695792695318557e-01	  -6.4939235184713018e-01	   7.6045353136299720e-01	   8.5930036194687731e-01	   5.1147129729630547e-01	  -8.2426436720133545e-01	   5.6620513328844180e-01	
  -9.5781732418796017e-01	   2.8737775398491811e-01	   8.3482805302916785e-01	  -5.5051078270596032e-01	  -6.4140821963092343e-01	   7.6719977567116704e-01	   9.2359810002685849e-01	  -3.8336216509558813e-01	   7.0606690074644607e-01	  -7.0814513460893613e-01	   3.8064599601568244e-01	  -9.2472083664056637e-01	  -2.9390633406166300e-03	  -9.9999568094401281e-01	  -7.7446850282484381e-01	   6.3261247073721594e-01	  -9.9480801876077507e-01	  -1.0176937559630291e-01	
   2.7366299007223038e-01	   9.6182564317277708e-01	  -8.5021713572945268e-01	   5.2643216287761663e-01	  -7.3900891722096906e-01	  -6.7369564364621715e-01	  -9.9996728071041985e-01	  -8.0893453757613590e-03	   9.9986912498278324e-01	   1.6178161396254991e-02	  -9.9970553924026162e-01	  -2.4265918740852984e-02	   9.9947653418767346e-01	   3.2352088158207441e-02	  -2.6587349619472245e-01	  -9.6400792736429031e-01	  -2.8143457583249926e-01	  -9.5958041847777475e-01	
   9.7943560792119777e-01	   2.0175700715472999e-01	   9.1858822012793251e-01	   3.9521599390990880e-01	   8.1996041569930744e-01	   5.7242022735593390e-01	  -9.7617946637518238e-01	   2.1696462713415793e-01	   9.0585270114507166e-01	  -4.2359282787622543e-01	  -7.9237014646144432e-01	   6.1004061421897915e-01	   6.4113823234364498e-01	  -7.6742541463471636e-01	  -9.9987906291839679e-01	   1.5551833892781891e-02	  -9.1233079526033756e-01	  -4.0945392905629807e-01	
   3.3460281418446264e-01	  -9.4235925036041213e-01	  -7.7608191347967592e-01	  -6.3063211428670907e-01	  -8.5396119876038667e-01	   5.2033669004955185e-01	   7.6342054581084107e-01	   6.4590174967550418e-01	   1.6562185953224484e-01	   9.8618933255490115e-01	  -5.1054228500621546e-01	   8.5985264738827916e-01	  -9.4513879929016276e-01	   3.2666902221721228e-01	   8.6411415166523253e-01	  -5.0329587013194876e-01	  -3.5322882559614072e-01	  -9.3553695638813283e-01	
  -9.9980316116239498e-01	  -1.9840335926641792e-02	   9.9921272214063606e-01	   3.9672861155960595e-02	  -9.9822891537738445e-01	  -5.9489768065531037e-02	   7.2390590928896825e-01	  -6.8989871321557927e-01	   4.8079531006975929e-02	  -9.9884351061522603e-01	  -6.5429579606538346e-01	  -7.5623872636302236e-01	  -9.9537671739629852e-01	  -9.6047855079482894e-02	  -7.3745123871680374e-01	   6.7540037793523022e-01	  -7.1007559426569344e-01	  -7.0412545077437894e-01	
  -5.7088810862664714e-02	   9.9836910392614153e-01	  -9.9348173534857376e-01	  -1.1399140989033510e-01	   1.7052219263231824e-01	  -9.8535383584774594e-01	  -9.6622181940217244e-01	  -2.5771184627633187e-01	   8.6716920857768853e-01	   4.9801361798122074e-01	  -7.0953380148078027e-01	  -7.0467140182941490e-01	   5.0396487261050948e-01	   8.6372414993137303e-01	   3.1245199973728360e-01	  -9.4993354918129536e-01	  -2.0213109033882259e-01	  -9.7935847487957073e-01	
   7.0451899746211233e-01	   7.0968512892336988e-01	  -7.3059644299603510e-03	   9.9997331108572496e-01	  -7.1481337893349151e-01	   6.9931526030659785e-01	  -8.2731723528062084e-01	   5.6173498396274901e-01	   3.6890761558474028e-01	  -9.2946606778493079e-01	   2.1690997808155399e-01	   9.7619161101120910e-01	  -7.2781434232716291e-01	  -6.8577422166692681e-01	  -9.8151567369740023e-01	  -1.9138177103982149e-01	  -1.8420574466865886e-01	  -9.8288770652148505e-01	
   5.6229809859504798e-01	  -8.2693460945614905e-01	  -3.6764169663278751e-01	  -9.2996751711926229e-01	  -9.7574655255679565e-01	  -2.1890332380648872e-01	   9.5980424156871003e-01	   2.8067030100584817e-01	   8.4244836426657321e-01	   5.3877709077555924e-01	   6.5736678508264723e-01	   7.5357077296701513e-01	   4.1943849291084950e-01	   9.0778375765634589e-01	   7.7179208580575831e-01	  -6.3587496906828866e-01	   3.0760011430933726e-01	  -9.5151572224366454e-01	
  -9.9691733373312630e-01	   7.8459095727865871e-02	   9.8768834059513111e-01	  -1.5643446504027234e-01	  -9.7236992039766212e-01	   2.3344536385596579e-01	  -3.4360855261972451e-01	  -9.3911296581751980e-01	  -7.6386632513315600e-01	   6.4537449386194956e-01	   8.6855055736762776e-01	   4.9560057435033616e-01	   1.6698352534486482e-01	  -9.8595968592199590e-01	   4.1623127620991124e-01	   9.0925877763410601e-01	   2.6886736804119760e-01	  -9.6317721027991476e-01	
   4.7100491468077871e-01	   8.8213058576752246e-01	  -5.5630874069310476e-01	   8.3097568257347454e-01	  -9.9505321657343315e-01	  -9.9343324822879997e-02	   0.0000000000000000e+00	   0.0000000000000000e+00	   0.0000000000000000e+00	   0.0000000000000000e+00	   0.0000000000000000e+00	   0.0000000000000000e+00	   0.0000000000000000e+00	   0.0000000000000000e+00	   0.0000000000000000e+00	   0.0000000000000000e+00	   0.0000000000000000e+00	   0.0000000000000000e+00	
   7.7477142449034542e-01	  -6.3224144105966429e-01	   2.0054152041359818e-01	  -9.7968520382324975e-01	  -4.6402374560974075e-01	  -8.8582276077684219e-01	   1.8013255154439334e-01	   9.8364234550679364e-01	  -9.3510452774821295e-01	   3.5437201100650090e-01	  -5.1701808063239441e-01	  -8.5597447642975599e-01	   7.4884095563041675e-01	  -6.6274974399883713e-01	   7.6146100756765356e-01	   6.4821071724714163e-01	  -4.8233790045339320e-01	  -8.7598524518750465e-01	
  -9.9968918200081902e-01	  -2.4930691737961863e-02	   9.9875692121893345e-01	   4.9845885660475348e-02	  -9.9720379718120500e-01	  -7.4730093586092047e-02	   5.0081858420858860e-01	  -8.6555227786154243e-01	  -4.9836149142260966e-01	  -8.6696933271427323e-01	  -9.9999597732529277e-01	  -2.8364296629127010e-03	  -5.0327164773406441e-01	   8.6412825933829973e-01	  -5.2224173780074989e-01	   8.5279749489480372e-01	  -4.7908410375583543e-01	  -8.7776900237389788e-01	
   6.4162426135218675e-01	   7.6701910487566127e-01	  -1.7663661448852136e-01	   9.8427613321772334e-01	  -8.6829293595008383e-01	   4.9605178900915542e-01	   0.0000000000000000e+00	   0.0000000000000000e+00	   0.0000000000000000e+00	   0.0000000000000000e+00	   0.0000000000000000e+00	   0.0000000000000000e+00	   0.0000000000000000e+00	   0.0000000000000000e+00	   0.0000000000000000e+00	   0.0000000000000000e+00	   0.0000000000000000e+00	   0.0000000000000000e+00	
   3.3004526934997924e-01	  -9.4396510538244982e-01	  -7.8214024035939933e-01	  -6.2310243492586437e-01	  -8.4632864194773061e-01	   5.3266108344697949e-01	  -6.7556937904251080e-01	   7.3729642213977709e-01	  -8.7212028200232869e-02	  -9.9618977215046822e-01	   7.9340493051504923e-01	   6.0869418942060705e-01	  -9.8478812427440354e-01	   1.7375946100314038e-01	   4.7301361715259427e-01	   8.8105511631691857e-01	  -9.1895057249396161e-01	   3.9437272384512118e-01	
  -9.5575483505343306e-01	   2.9416440177558029e-01	   8.2693460945602992e-01	  -5.6229809859522306e-01	  -6.2493866746781357e-01	   7.8067385117189203e-01	   9.6323827063208400e-01	  -2.6864853245404519e-01	   8.5565593202057566e-01	  -5.1754509561776352e-01	   6.8516280979908195e-01	  -7.2838995329989764e-01	   4.6429414800399998e-01	  -8.8568106230699084e-01	  -8.4159279962788969e-01	   5.4011254347079429e-01	  -9.9964646930235324e-01	   2.6588275824868678e-02	
   7.5055293872798334e-01	   6.6081032540872731e-01	   1.2665942766642393e-01	   9.9194626335463043e-01	  -5.6042372742270552e-01	   8.2820604063339276e-01	  -7.4212465090763913e-01	  -6.7026189099128619e-01	   1.0149799496957035e-01	   9.9483574373720463e-01	   5.9147632273840334e-01	  -8.0632236707154303e-01	  -9.7939631403431415e-01	   2.0194766662677516e-01	  -1.1408785934618657e-01	  -9.9347066406100026e-01	  -9.9991981593622803e-01	   1.2663399940769985e-02	
   4.2577929156493360e-01	  -9.0482705246608497e-01	  -6.3742398974892656e-01	  -7.7051324277559330e-01	  -9.6858316112851650e-01	   2.4868988716530133e-01	   0.0000000000000000e+00	   0.0000000000000000e+00	   0.0000000000000000e+00	   0.0000000000000000e+00	   0.0000000000000000e+00	   0.0000000000000000e+00	   0.0000000000000000e+00	   0.0000000000000000e+00	   0.0000000000000000e+00	   0.0000000000000000e+00	   0.0000000000000000e+00	   0.0000000000000000e+00	
  -9.9393067731793938e-01	   1.1000822099417079e-01	   9.7579638262739532e-01	  -2.1868109120655546e-01	  -9.4581724170054482e-01	   3.2469946920494513e-01	   6.1020031473350861e-02	   9.9813654164096777e-01	  -9.9255311151798253e-01	   1.2181264637126686e-01	  -1.8215127568094988e-01	  -9.8327051861011405e-01	   9.7032335836805739e-01	  -2.4181104235608122e-01	  -1.7045290646746630e-01	  -9.8536582378160098e-01	   4.9153544042927343e-02	   9.9879123399638425e-01	
   8.0826107855477791e-01	   5.8882427675280780e-01	   3.0657194221306577e-01	   9.5184749001492286e-01	  -3.1268074121924688e-01	   9.4985828104543168e-01	   7.6118619441199509e-01	  -6.4853340502751633e-01	   1.5880884512683108e-01	  -9.8730934904389622e-01	  -5.1941999348988066e-01	  -8.5451908718469971e-01	  -9.4955950141896439e-01	  -3.1358691500916902e-01	   9.9710938764180901e-01	  -7.5979399027477509e-02	   2.3336496131108267e-01	   9.7238921982520810e-01	
  -1.7219136640512148e-01	  -9.8506351741171350e-01	  -9.4070026667107443e-01	   3.3923886611791620e-01	   4.9615229499663038e-01	   8.6823550962257745e-01	   0.0000000000000000e+00	   0.0000000000000000e+00	   0.0000000000000000e+00	   0.0000000000000000e+00	   0.0000000000000000e+00	   0.0000000000000000e+00	   0.0000000000000000e+00	   0.0000000000000000e+00	   0.0000000000000000e+00	   0.0000000000000000e+00	   0.0000000000000000e+00	   0.0000000000000000e+00	
  -9.1172390988061958e-01	   4.1080349578843162e-01	   6.6248097569600806e-01	  -7.4907873874571096e-01	  -2.9627558088556488e-01	   9.5510249720693385e-01	   9.9874925406380410e-01	  -4.9999275064693947e-02	   9.9500014498601019e-01	  -9.9873477349188083e-02	   9.8876205113250493e-01	  -1.4949784694182658e-01	   9.8005057704436238e-01	  -1.9874824888539827e-01	  -8.9004369792194049e-01	   4.5587521953867771e-01	  -9.3112345188886736e-01	   3.6470415043231980e-01	
  -9.5909467314436547e-01	  -2.8308551348683109e-01	   8.3972518410779440e-01	   5.4301161605911419e-01	  -6.5165722882154919e-01	  -7.5851358334878827e-01	  -9.8416421046239067e-01	   1.7725915165355818e-01	   9.3715838631012172e-01	  -3.4890422606871452e-01	  -8.6047127621982700e-01	   5.0949895269825840e-01	   7.5653168206278265e-01	  -6.5395704295867685e-01	   9.9408614971989673e-01	   1.0859432275709023e-01	   8.9372715378772150e-01	   4.4861093899112447e-01	
   8.1556086895921764e-01	  -5.7867129617986568e-01	   3.3027906195502832e-01	  -9.4388333030841609e-01	  -2.7683551142505958e-01	  -9.6091732194503898e-01	   0.0000000000000000e+00	   0.0000000000000000e+00	   0.0000000000000000e+00	   0.0000000000000000e+00	   0.0000000000000000e+00	   0.0000000000000000e+00	   0.0000000000000000e+00	   0.0000000000000000e+00	   0.0000000000000000e+00	   0.0000000000000000e+00	   0.0000000000000000e+00	   0.0000000000000000e+00	
  -2.4983318097529761e-01	   9.6828889371084093e-01	  -8.7516676336752841e-01	  -4.8382138883766246e-01	   6.8712457372722813e-01	  -7.2653962051644161e-01	   0.0000000000000000e+00	   0.0000000000000000e+00	   0.0000000000000000e+00	   0.0000000000000000e+00	   0.0000000000000000e+00	   0.0000000000000000e+00	   0.0000000000000000e+00	   0.0000000000000000e+00	   0.0000000000000000e+00	   0.0000000000000000e+00	   0.0000000000000000e+00	   0.0000000000000000e+00	
   9.9641365173917684e-01	  -8.4615806016361317e-02	   9.8568033074440298e-01	  -1.6862468853523280e-01	   9.6787702386984409e-01	  -2.5142407733718214e-01	   0.0000000000000000e+00	   0.0000000000000000e+00	   0.0000000000000000e+00	   0.0000000000000000e+00	   0.0000000000000000e+00	   0.0000000000000000e+00	   0.0000000000000000e+00	   0.0000000000000000e+00	   0.0000000000000000e+00	   0.0000000000000000e+00	   0.0000000000000000e+00	   0.0000000000000000e+00	
   9.9073070957198961e-01	  -1.3584057240376268e-01	   9.6309467777803626e-01	  -2.6916285337249007e-01	   9.1760423742809105e-01	  -3.9749523702053519e-01	   0.0000000000000000e+00	   0.0000000000000000e+00	   0.0000000000000000e+00	   0.0000000000000000e+00	   0.0000000000000000e+00	   0.0000000000000000e+00	   0.0000000000000000e+00	   0.0000000000000000e+00	   0.0000000000000000e+00	   0.0000000000000000e+00	   0.0000000000000000e+00	   0.0000000000000000e+00	
   3.7761529435794561e-01	  -9.2596257454983677e-01	  -7.1481337893392416e-01	  -6.9931526030615554e-01	  -9.1746422335220867e-01	   3.9781829881081215e-01	  -1.7132399554234287e-01	   9.8521474235387241e-01	  -9.4129617710281455e-01	  -3.3758185225457066e-01	   4.9385723964231720e-01	  -8.6954299885219644e-01	   7.7207698605674646e-01	   6.3552901397302897e-01	   8.4757741830714495e-01	   5.3067176293429730e-01	  -9.7696654032174701e-01	  -2.1339254694519255e-01	
  -5.9063731686092458e-01	  -8.0693714744788381e-01	  -3.0229511986265567e-01	   9.5321438328805275e-01	   9.4773087385258525e-01	  -3.1907082402910969e-01	   8.8230939044218315e-01	  -4.7066988382256120e-01	   5.5693972092491351e-01	  -8.3055291658995423e-01	   1.0047690092241869e-01	  -9.9493939131035836e-01	  -3.7963629451215891e-01	  -9.2513581915796417e-01	  -9.0092586445337375e-01	  -4.3397302538169502e-01	  -1.4132383757056449e-01	  -9.8996341999809701e-01	
  -9.8623589094933617e-01	  -1.6534439029906353e-01	   9.4532246519326191e-01	   3.2613714416014339e-01	  -8.7838599643926296e-01	  -4.7795192358583832e-01	  -4.3653106892559818e-01	  -8.9968918291967626e-01	  -6.1888125172534936e-01	   7.8548456144144863e-01	   9.7685285763295604e-01	   2.1391235245849577e-01	  -2.3397199252572962e-01	  -9.7224333719164147e-01	   2.8176404828038648e-01	   9.5948372633236878e-01	   5.7928116709741995e-01	  -8.1512779945616565e-01	
  -6.7728157162569391e-01	   7.3572391067317511e-01	  -8.2579345472460194e-02	  -9.9658449300665930e-01	   7.8914050939651159e-01	   6.1421271268951627e-01	  -3.9973421606853693e-01	   9.1663109073611082e-01	  -6.8042511300814446e-01	  -7.3281762095889436e-01	   9.4371261435184961e-01	  -3.3076653626568281e-01	  -7.4043331175707675e-02	   9.9725502511063058e-01	  -4.0365479262952586e-01	  -9.1491136641054716e-01	   9.4512002881245283e-01	   3.2672332505890722e-01	
   7.6399615095505413e-01	   6.4522080044420627e-01	   1.6738023734827562e-01	   9.8589241611102518e-01	  -5.0824043679500208e-01	   8.6121522188499755e-01	   9.8599860956407892e-01	   1.6675353650733515e-01	   9.4438651612459368e-01	   3.2883751027225067e-01	   8.7632897401574894e-01	   4.8171311929457017e-01	   7.8373178367589491e-01	   6.2109942139419216e-01	   6.4570629225182652e-01	   7.6358587214955653e-01	   8.6089199285615636e-01	   5.0878775205006221e-01	
   9.9988810181027366e-01	   1.4959407015249560e-02	   9.9955243228350421e-01	   2.9915466169370349e-02	   9.9899306654131659e-01	   4.4864830350472791e-02	   9.9959537417530209e-01	  -2.8444470944943366e-02	   9.9838182414532450e-01	  -5.6865923154858347e-02	   9.9636033197743079e-01	  -8.5241356522664083e-02	   9.9353253356749149e-01	  -1.1354780818211065e-01	   9.9990903368067185e-01	  -1.3487934007287436e-02	   9.9905800884427420e-01	   4.3394642112986367e-02	
   9.1275680394373004e-01	  -4.0850338658868823e-01	   6.6624996629114552e-01	  -7.4572849108576200e-01	   3.0349157577531760e-01	  -9.5283412167775283e-01	  -8.7775438566541730e-01	  -4.7911088324637946e-01	   5.4090552310974827e-01	   8.4108335797908251e-01	  -7.1810004615039766e-02	  -9.9741832910629225e-01	  -4.1484243013873906e-01	   9.0989326745315868e-01	  -9.9689470606520203e-01	  -7.8746079389226828e-02	  -6.0545786934991486e-01	   7.9587735766401935e-01	
  -9.2901771345868056e-01	  -3.7003525248279373e-01	   7.2614782383999010e-01	   6.8753860832134117e-01	  -4.2019066841496749e-01	  -9.0743583915171810e-01	   0.0000000000000000e+00	   0.0000000000000000e+00	   0.0000000000000000e+00	   0.0000000000000000e+00	   0.0000000000000000e+00	   0.0000000000000000e+00	   0.0000000000000000e+00	   0.0000000000000000e+00	   0.0000000000000000e+00	   0.0000000000000000e+00	   0.0000000000000000e+00	   0.0000000000000000e+00	
   1.5643446504029057e-01	   9.8768834059512822e-01	  -9.5105651629511623e-01	   3.0901699437506241e-01	  -4.5399049973970840e-01	  -8.9100652418828552e-01	  -7.3495980689673879e-01	   6.7811067109013135e-01	   8.0331835507383292e-02	  -9.9676817575804189e-01	   6.1687846627240484e-01	   7.8705842086175881e-01	  -9.8709359240802941e-01	  -1.6014443426797909e-01	  -7.8473504768686730e-01	  -6.1983135200785877e-01	   5.5478895925085414e-01	  -8.3199111214805299e-01	
   9.9744049867117268e-01	   7.1501409850452086e-02	   9.8977509677879538e-01	   1.4263680379385368e-01	   9.7704303353552702e-01	   2.1304203955955517e-01	   5.0168245854366478e-01	   8.6505185439347165e-01	  -4.9662942157916817e-01	   8.6796268215974637e-01	  -9.9998299694957526e-01	   5.8314502266383801e-03	  -5.0671843524388172e-01	  -8.6211160958659638e-01	   4.3854597444149168e-01	   8.9870875610576006e-01	   5.6225082880725408e-01	  -8.2696674993953401e-01	
   1.4840461133039690e-01	  -9.8892672698025197e-01	  -9.5595214267174766e-01	  -2.9352257310349161e-01	  -4.3214002369771937e-01	   9.0180652022400820e-01	   9.7692465428042652e-01	  -2.1358422193380544e-01	   9.0876356028186189e-01	  -4.1731138434487353e-01	   7.9866239962158847e-01	  -6.0177933782299808e-01	   6.5170241699233045e-01	  -7.5847475876679948e-01	  -6.6239021914053786e-02	  -9.9780378430624805e-01	   3.5619926914919098e-01	  -9.3441001742146479e-01	
  -9.7415389500088556e-01	  -2.2588534448831246e-01	   8.9795162229079284e-01	   4.4009417631381281e-01	  -7.7533224575299386e-01	  -6.3155356755830239e-01	  -4.2244302279565943e-01	  -9.0638948167510525e-01	  -6.4308378498253194e-01	   7.6579582493804488e-01	   9.6577553887344880e-01	   2.5937927541285860e-01	  -1.7288649098508133e-01	  -9.8494175524995664e-01	   2.0678441576357584e-01	   9.7838653169251910e-01	   6.1626461638110364e-01	  -7.8753915623075599e-01	
   9.4647549513760088e-02	   9.9551084442663929e-01	  -9.8208368274208069e-01	   1.8844532387871091e-01	  -2.8055117749173392e-01	  -9.5983906818174558e-01	  -9.4048398215227968e-01	  -3.3983801923120721e-01	   7.6902024137001923e-01	   6.3922442722661754e-01	  -5.0601845576648719e-01	  -8.6252265038299125e-01	   1.8278426327360539e-01	   9.8315304663085157e-01	   2.4929792922547941e-01	  -9.6842683899398818e-01	  -4.2732693776079173e-01	  -9.0409716749030045e-01	
   9.9624697128286810e-01	   8.6556179500439145e-02	   9.8501605558057548e-01	   1.7246266334625754e-01	   9.6639155279142308e-01	   2.5707463253573282e-01	  -8.7285012732773815e-01	   4.8798837611561136e-01	   5.2373468955209723e-01	  -8.5188143245393511e-01	  -4.1433653595264831e-02	   9.9914125745549498e-01	  -4.5140394991953664e-01	  -8.9231971512291519e-01	  -9.1181270521131541e-01	   4.1060636942846224e-01	  -8.2733588625693433e-01	  -5.6170751402438357e-01	
   1.4840461133039690e-01	  -9.8892672698025197e-01	  -9.5595214267174766e-01	  -2.9352257310349161e-01	  -4.3214002369771937e-01	   9.0180652022400820e-01	   9.9147821854390594e-01	   1.3027256868966197e-01	   9.6605811569399458e-01	   2.5832482865912931e-01	   9.2417294057242283e-01	   3.8197431315956459e-01	   8.6653656579646299e-01	   4.9911359442282499e-01	   2.7596996463514056e-01	  -9.6116625961343405e-01	   1.8309914695984766e-02	  -9.9983235946023763e-01	
  -7.5759628243330968e-01	  -6.5272342752748580e-01	   1.4790425431354212e-01	   9.8900168430390201e-01	   5.3349285598528862e-01	  -8.4580457117035024e-01	  -9.9184730648123454e-01	  -1.2743202354949909e-01	   9.6752215874815983e-01	   2.5278621863404782e-01	  -9.2742118774930926e-01	  -3.7401863658601370e-01	   8.7219825533739870e-01	   4.8915253590919655e-01	   6.6824196494368271e-01	   7.4394400077439016e-01	   8.3459769931966710e-01	   5.5085994616628153e-01	
  -9.7904779240741246e-01	  -2.0363059736241046e-01	   9.1706915963565572e-01	   3.9872817362854129e-01	  -8.1666128004500638e-01	  -5.7711727896091591e-01	  -1.5037421240214133e-01	  -9.8862915000744123e-01	  -9.5477519248887133e-01	   2.9732865958033483e-01	   4.3752134758537514e-01	   8.9920802398948674e-01	   8.2319133638432274e-01	  -5.6776405636654459e-01	  -5.4091603698587544e-02	   9.9853597752375201e-01	   3.4853868507322716e-01	  -9.3729439612505194e-01	
   2.7781550062200633e-01	  -9.6063445056594965e-01	  -8.4563709522828800e-01	  -5.3375828159745065e-01	  -7.4767768653277800e-01	   6.6406180213967514e-01	  -9.6872565807822619e-01	   2.4813423661580344e-01	   8.7685880123818494e-01	  -4.8074800331476497e-01	  -7.3014558046406397e-01	   6.8329161514597492e-01	   5.3776271461773339e-01	  -8.4309623576847159e-01	  -3.0760707606360824e-02	   9.9952677746399365e-01	  -5.0749329972240864e-01	   8.6165570313023609e-01	
  -2.1714371450535515e-02	  -9.9976421523902737e-01	  -9.9905697214501632e-01	   4.3418503065306757e-02	   6.5102159837343021e-02	   9.9787860423225483e-01	   2.4242663022358915e-01	   9.7016974234328457e-01	  -8.8245865791687039e-01	   4.7038996276234041e-01	  -6.7028958772442471e-01	  -7.4209963521633715e-01	   5.5746656586488796e-01	  -8.3019939047364311e-01	   9.6467684920430652e-01	  -2.6343609587384109e-01	  -9.7520513300065981e-01	  -2.2130284356321628e-01	
  -9.3378647087018762e-01	  -3.5783072369459884e-01	   7.4391434636039933e-01	   6.6827497729540930e-01	  -4.5552783336497182e-01	  -8.9022154154447108e-01	   8.8025903327192212e-01	  -4.7449345026373241e-01	   5.4971193131363782e-01	  -8.3535429164602393e-01	   8.7518753200444263e-02	  -9.9616287214402832e-01	  -3.9563358514286068e-01	  -9.1840844198374327e-01	  -9.9176231082680966e-01	   1.2809183745838973e-01	  -6.5218564143437274e-01	  -7.5805929128718941e-01	
  -8.4932133907074303e-01	   5.2787618150384463e-01	   4.4269347400184006e-01	  -8.9667301067679195e-01	   9.7343310796499119e-02	   9.9525086276937036e-01	  -2.3483368285535319e-01	  -9.7203556591134632e-01	  -8.8970628279318276e-01	   4.5653338361869777e-01	   6.5269968895109221e-01	   7.5761673426815723e-01	   5.8315453928332583e-01	  -8.1236123942077143e-01	   7.1256368080083299e-01	   7.0160744067004344e-01	  -3.1366516483758750e-01	  -9.4953365625838093e-01	
  -7.1791192306446994e-01	   6.9613394596289768e-01	   3.0795058556250868e-02	  -9.9952571971336335e-01	   6.7369564364646795e-01	   7.3900891722074047e-01	  -6.0644130356227444e-01	   7.9512825715961655e-01	  -2.6445789066737846e-01	  -9.6439723354215445e-01	   9.2719767946958342e-01	   3.7457237376269437e-01	  -8.6012404812752175e-01	   5.1008491629602670e-01	  -1.1814432873700903e-01	  -9.9299643382405034e-01	   9.8888721366924193e-01	   1.4866767853667107e-01	
  -2.3876995502352710e-01	   9.7107616002971819e-01	  -8.8597781715612567e-01	  -4.6372762210943042e-01	   6.6185972213194899e-01	  -7.4962771308124632e-01	   6.4158201098646825e-02	   9.9793974028083765e-01	  -9.9176745046357118e-01	   1.2805203708253873e-01	  -1.9141823215851470e-01	  -9.8150856358837180e-01	   9.6720535159802423e-01	  -2.5399568468803219e-01	  -9.8439454172368435e-01	  -1.7597552734575750e-01	   9.5375644014225580e-01	   3.0058052646033429e-01	
   9.6708423522886644e-01	   2.5445644415459112e-01	   8.7050383605640291e-01	   4.9216163138859897e-01	   7.1661683788393549e-01	   6.9746706564627792e-01	   8.1027760298209428e-01	  -5.8604624911826841e-01	   3.1309958778881686e-01	  -9.4972029994439566e-01	  -3.0288243600568732e-01	  -9.5302792716649221e-01	  -8.0393729625294597e-01	  -5.9471406885452360e-01	   9.3272994066378789e-01	  -3.6057573100435725e-01	   6.3448345134224760e-01	   7.7293644627021552e-01	
   5.7175058482069352e-01	  -8.2042749146843863e-01	  -3.4620253751438984e-01	  -9.3815979610010869e-01	  -9.6763359140121474e-01	  -2.5235933268256000e-01	   0.0000000000000000e+00	   0.0000000000000000e+00	   0.0000000000000000e+00	   0.0000000000000000e+00	   0.0000000000000000e+00	   0.0000000000000000e+00	   0.0000000000000000e+00	   0.0000000000000000e+00	   0.0000000000000000e+00	   0.0000000000000000e+00	   0.0000000000000000e+00	   0.0000000000000000e+00	
  -6.5083585132721111e-01	  -7.5921847621563077e-01	  -1.5282538925436864e-01	   9.8825320662229610e-01	   8.4976433596677003e-01	  -5.2716275790210598e-01	  -1.5903913992270871e-01	   9.8727227853953492e-01	  -9.4941310394529010e-01	  -3.1402986809692113e-01	   4.6102682688832475e-01	  -8.8738619827518317e-01	   8.0277048388606065e-01	   5.9628814360285587e-01	   8.5306372894866334e-01	  -5.2180674042427000e-01	  -6.4604698089677592e-01	   7.6329764736579719e-01	
  -9.0096886790234687e-01	   4.3388373911770828e-01	   6.2348980185847291e-01	  -7.8183148246823764e-01	  -2.2252093395582745e-01	   9.7492791218193475e-01	   8.6471463553055505e-01	  -5.0226347577666774e-01	   4.9546280180148145e-01	  -8.6862915679306196e-01	  -7.8467633731254590e-03	  -9.9996921367838432e-01	  -5.0903322406205176e-01	  -8.6074687150229767e-01	  -5.6115701134031726e-01	   8.2770937449300586e-01	  -9.9700492112479178e-01	  -7.7338135825398557e-02	
  -1.4751179093900793e-01	   9.8906029721850952e-01	  -9.5648054306793284e-01	  -2.9179611157873969e-01	   4.2969610675153913e-01	  -9.0297356320247268e-01	  -8.9782375842742834e-01	  -4.4035496909112620e-01	   6.1217500239350664e-01	   7.9072230678317790e-01	  -2.0142676450108818e-01	  -9.7950357760583151e-01	  -2.5048353288902037e-01	   9.6812086009518206e-01	   5.6797720716413780e-01	  -8.2304428322054823e-01	  -3.0309802605769565e-01	  -9.5295938349959519e-01	
   5.2328617922618803e-01	   8.5215701289777457e-01	  -4.5234314926171576e-01	   8.9184397476015564e-01	  -9.9669601577879696e-01	   8.1222239138503030e-02	  -6.9840802156276005e-01	   7.1569982214388683e-01	  -2.4452470833582592e-02	  -9.9970099363266252e-01	   7.3256362511716677e-01	   6.8069856409073992e-01	  -9.9880415334026562e-01	   4.8890318778212434e-02	  -9.7535588771410098e-01	  -2.2063746803622905e-01	   2.4442135742510535e-01	  -9.6966911884130291e-01	
   9.4324264694761861e-01	  -3.3210436458928100e-01	   7.7941338204149979e-01	  -6.2650999983610078e-01	   5.2710923613882243e-01	  -8.4979753657982970e-01	  -4.3653106892559834e-01	   8.9968918291967614e-01	  -6.1888125172534902e-01	  -7.8548456144144885e-01	   9.7685285763295626e-01	  -2.1391235245849474e-01	  -2.3397199252573039e-01	   9.7224333719164135e-01	  -1.1296401650686581e-01	   9.9359907959631111e-01	  -7.1054542534964316e-01	  -7.0365133305828009e-01	
  -4.9173292464572788e-01	  -8.7074607711970708e-01	  -5.1639746163871780e-01	   8.5634903025173614e-01	   9.9959219282820144e-01	   2.8556050793269772e-02	   8.1159334866096500e-01	   5.8422276265931417e-01	   3.1736752718143735e-01	   9.4830261662126591e-01	  -2.9644660037809983e-01	   9.5504942967590278e-01	  -7.9855570538147924e-01	   6.0192091291355554e-01	   1.0962250778955883e-01	  -9.9397329229005349e-01	  -9.0779684970971175e-01	  -4.1941015683591049e-01	
  -9.6341814137259496e-01	  -2.6800277027332120e-01	   8.5634903025165088e-01	   5.1639746163885936e-01	  -6.8662624080994472e-01	  -7.2701059512994981e-01	   8.2660901755614502e-01	  -5.6277662717535160e-01	   3.6656493581027050e-01	  -9.3039246978595669e-01	  -2.2059725463482685e-01	  -9.7536498360745827e-01	  -7.3126029566882444e-01	  -6.8209851193089654e-01	  -9.4719581846383860e-01	   3.2065570552325900e-01	  -6.4554442820769764e-01	  -7.6372271879917042e-01	
  -7.9422437193932138e-01	   6.0762459382219758e-01	   2.6158470596481886e-01	  -9.6518052280664013e-01	   3.7871047433164073e-01	   9.2551519524614168e-01	  -9.4590124065487047e-01	  -3.2445468547638034e-01	   7.8945831414484624e-01	   6.1380417905678786e-01	  -5.4759795693495383e-01	  -8.3674158350153993e-01	   2.4648885954484542e-01	   9.6914562482646616e-01	   9.4840446525203381e-01	  -3.1706303835358018e-01	   5.5411117229944484e-01	  -8.3244267594407662e-01	
   7.7006304484034993e-01	   6.3796779461913999e-01	   1.8599418605758158e-01	   9.8255084486899591e-01	  -4.8360854636414219e-01	   8.7528439600141472e-01	  -6.7556937904251080e-01	   7.3729642213977709e-01	  -8.7212028200232869e-02	  -9.9618977215046822e-01	   7.9340493051504923e-01	   6.0869418942060705e-01	  -9.8478812427440354e-01	   1.7375946100314038e-01	  -9.9060238543947643e-01	   1.3677322092288022e-01	  -4.9859640613284115e-02	  -9.9875623464282526e-01	
   8.6168126305058090e-01	  -5.0744989989904976e-01	   4.8498919818488867e-01	  -8.7452014135980816e-01	  -2.5869053334895073e-02	  -9.9966534004113417e-01	  -2.6752492842093273e-01	   9.6355093932462899e-01	  -8.5686082534674968e-01	  -5.1554779214548774e-01	   7.2598819035611362e-01	  -6.8770716694204614e-01	   4.6842094802782602e-01	   8.8350541336695432e-01	   2.5843260948865265e-01	   9.6602928855852277e-01	  -7.1947504592718414e-01	  -6.9451829226311701e-01	
   1.0681710944086523e-01	  -9.9427868584753354e-01	  -9.7718021026139645e-01	  -2.1241195040179128e-01	  -3.1557624036674292e-01	   9.4890022474230218e-01	   9.6075452072663747e-01	   2.7739998360369317e-01	   8.4609849819334149e-01	   5.3302657659348662e-01	   6.6503139351190566e-01	   7.4681540265557789e-01	   4.3176533729005584e-01	   9.0198597190577434e-01	   3.7843791193787063e-01	  -9.2562667788266806e-01	  -1.7318787036534414e-01	  -9.8488880669764789e-01	
  -8.7310127638816126e-01	   4.8753888170007909e-01	   5.2461167766127259e-01	  -8.5134163980239164e-01	  -4.2976974360222582e-02	   9.9907606300763740e-01	   7.9488488525206202e-01	  -6.0676026501231628e-01	   2.6368396160436747e-01	  -9.6460912725965142e-01	  -3.7568809412666770e-01	  -9.2674616585744340e-01	  -8.6094153678525298e-01	  -5.0870391215111266e-01	  -3.9819578683108448e-01	   9.1730044987995807e-01	  -9.8983422895938067e-01	  -1.4222587380778631e-01	
   3.6786019582142199e-01	   9.2988110870703522e-01	  -7.2935775266045022e-01	   6.8413249347922189e-01	  -9.0446356725651289e-01	  -4.2655088266890667e-01	  -4.9985724053000918e-01	  -8.6610781031562378e-01	  -5.0028547817944913e-01	   8.6586052013171266e-01	   9.9999987773004029e-01	   4.9450976179115258e-04	  -4.9942888064551988e-01	  -8.6635488870160082e-01	   6.2149970853198999e-01	  -7.8341439372445243e-01	  -9.8925487330023965e-01	  -1.4620121631411573e-01	
   8.7222044103998075e-01	   4.8911297491686057e-01	   5.2153699553595700e-01	   8.5322866940072228e-01	   3.7570015490097121e-02	   9.9929399774844729e-01	  -9.7215813403045270e-01	   2.3432576136316816e-01	   8.9018287512314320e-01	  -4.5560338984416537e-01	  -7.5863891162070396e-01	   6.5151132129453726e-01	   5.8485110232501092e-01	  -8.1114067097465870e-01	  -9.6254796666464360e-01	  -2.7111143810204719e-01	  -7.3332442618464844e-01	  -6.7987887594847074e-01	
   8.7630668004388623e-01	  -4.8175367410167408e-01	   5.3582679497907604e-01	  -8.4432792550196467e-01	   6.2790519529455954e-02	  -9.9802672842826257e-01	  -4.9985724053000896e-01	   8.6610781031562389e-01	  -5.0028547817944957e-01	  -8.6586052013171233e-01	   9.9999987773004029e-01	  -4.9450976179188735e-04	  -4.9942888064551899e-01	   8.6635488870160127e-01	  -2.0777619157042817e-02	   9.9978412196942035e-01	  -8.5527885873245801e-01	  -5.1816799766610833e-01	
  -9.8636130340271599e-01	  -1.6459459028077233e-01	   9.4581724170060932e-01	   3.2469946920475723e-01	  -8.7947375120643367e-01	  -4.7594739303717598e-01	   2.1062996726701122e-01	   9.7756586319751249e-01	  -9.1127003377819560e-01	   4.1180933153327925e-01	  -5.9451152203923008e-01	  -8.0408709115530386e-01	   6.6082614892422731e-01	  -7.5053900691301512e-01	  -4.6855196323696252e-02	  -9.9890169214866575e-01	  -3.6865930177462469e-01	   9.2956458582233337e-01	
   1.9598594630085608e-01	   9.8060670447053233e-01	  -9.2317901770511590e-01	   3.8437026584924239e-01	  -5.5784617308092033e-01	  -8.2994436390578130e-01	   7.6997960993444248e-01	   6.3806849184488323e-01	   1.8573719942959238e-01	   9.8259945692436235e-01	  -4.8395189720021592e-01	   8.7509460128394778e-01	  -9.3100338549610362e-01	   3.6501054258033888e-01	  -4.7478905852912795e-01	   8.8009962498629912e-01	   7.7659942349985944e-01	   6.2999471062834012e-01	
   8.7146534087134908e-01	   4.9045709257791692e-01	   5.1890368068003323e-01	   8.5483271473237032e-01	   3.2947805055096785e-02	   9.9945707368653469e-01	   7.0377048547852850e-01	  -7.1042740921878589e-01	  -9.4142075386324988e-03	  -9.9995568536631640e-01	  -7.1702136829824537e-01	  -6.9705118707574987e-01	  -9.9982274539283911e-01	   1.8827580702948005e-02	   9.6174574763584830e-01	  -2.7394363818925077e-01	   2.6487742440963330e-01	   9.6428209048914670e-01	
   9.7481608110321905e-01	   2.2301033164981884e-01	   9.0053278395487557e-01	   4.3478811508881121e-01	   7.8089159761650828e-01	   6.2466656127244180e-01	   0.0000000000000000e+00	   0.0000000000000000e+00	   0.0000000000000000e+00	   0.0000000000000000e+00	   0.0000000000000000e+00	   0.0000000000000000e+00	   0.0000000000000000e+00	   0.0000000000000000e+00	   0.0000000000000000e+00	   0.0000000000000000e+00	   0.0000000000000000e+00	   0.0000000000000000e+00	
   4.6796217328946554e-01	  -8.8374849610633011e-01	  -5.6202280874040045e-01	  -8.2712173375843001e-01	  -9.9397300332228034e-01	   1.0962512789723977e-01	  -3.0306027285656584e-01	   9.5297139044994628e-01	  -8.1630894203220772e-01	  -5.7761553922852327e-01	   7.9784189427163688e-01	  -6.0286674460036871e-01	   3.3272057768348451e-01	   9.4302545945799809e-01	   7.0036628921884148e-01	   7.1378362332420464e-01	  -9.8400777706615528e-01	  -1.7812550259107673e-01	
   4.1623536981638523e-02	  -9.9913336505650641e-01	  -9.9653496233827632e-01	  -8.3174929140036880e-02	  -1.2458215669840364e-01	   9.9220929557849558e-01	   9.6624586067352602e-01	   2.5762169305257848e-01	   8.6726212653744605e-01	   4.9785178906351923e-01	   7.0973101909792802e-01	   7.0447276777049128e-01	   5.0428719225250629e-01	   8.6353600256739949e-01	   2.9761699940627678e-01	  -9.5468535217861406e-01	  -2.1717985877607748e-01	  -9.7613160431470669e-01	
   2.0791169081768299e-01	  -9.7814760073382190e-01	  -9.1354545764266437e-01	  -4.0673664307565760e-01	  -5.8778525229228440e-01	   8.0901699437508456e-01	  -1.8034633716621905e-02	  -9.9983736276791901e-01	  -9.9934950397341460e-01	   3.6063401227425282e-02	   5.4080438234717657e-02	   9.9853658230449471e-01	   9.9739886218381946e-01	  -7.2079884256443363e-02	  -9.8173812870477228e-01	  -1.9023734293574412e-01	   9.7423890632617138e-01	   2.2551841033579811e-01	
  -7.4706852611208463e-01	  -6.6474703255653389e-01	   1.1622276541456486e-01	   9.9322317169878338e-01	   5.7341578599422593e-01	  -8.1926450940622597e-01	  -9.9835090429911244e-01	  -5.7406200755182657e-02	   9.9340905622971132e-01	   1.1462306487262600e-01	  -9.8519075495260777e-01	  -1.7146188018306222e-01	   9.7372310599841150e-01	   2.2773518139454474e-01	   7.0767593701505216e-01	   7.0653716687083623e-01	   7.8399714021975708e-01	   6.2076443529509850e-01	
  -6.4400225440883729e-01	   7.6502359199983838e-01	  -1.7052219263267043e-01	  -9.8535383584768499e-01	   8.6363560737319289e-01	   5.0411659135277054e-01	  -9.9654251492594637e-01	  -8.3084390501886332e-02	   9.8619396810986015e-01	   1.6559425492367844e-01	  -9.6902591944405048e-01	  -2.4695904001597610e-01	   9.4515708547254362e-01	   3.2661611071875635e-01	   7.0533714508743217e-01	  -7.0887199955980107e-01	   5.7821410736569145e-01	  -8.1588506913859904e-01	
  -7.9402406295135758e-02	   9.9684264449036397e-01	  -9.8739051574908432e-01	  -1.5830340934028289e-01	   2.3620477210208041e-01	  -9.7170330123767934e-01	  -6.3053079532785428e-01	   7.7616423271316981e-01	  -2.0486183228644717e-01	  -9.7879090191533735e-01	   8.8887418341564428e-01	   4.5815137897552111e-01	  -9.1606325934447919e-01	   4.0103379518336041e-01	  -7.2364794390441289e-01	  -6.9016929320487419e-01	   8.2377926868884777e-01	  -5.6691067768958725e-01	
   1.4097493417866241e-01	   9.9001316553534868e-01	  -9.6025213586664360e-01	   2.7913408169470999e-01	  -4.1171789747610277e-01	  -9.1131134794748236e-01	   3.4010125791208073e-01	   9.4038882084307041e-01	  -7.6866226873324062e-01	   6.3965484179037313e-01	  -8.6294726692353874e-01	  -5.0529398819815252e-01	   1.8168336674826535e-01	  -9.8335708379358067e-01	  -8.8305156090866610e-01	   4.6927597506879515e-01	   9.7894306580513790e-01	   2.0413347082739133e-01	
   9.8148389106031264e-01	  -1.9154469867137655e-01	   9.2662125682178309e-01	  -3.7599607232791549e-01	   8.3744378230896832e-01	  -5.4652347751221941e-01	   1.8824862711546594e-01	  -9.8212140511707724e-01	  -9.2912490877828446e-01	  -3.6976601234800432e-01	  -5.3806160410805592e-01	   8.4290551676013237e-01	   7.2654619222451100e-01	   6.8711762498429907e-01	  -3.3571535738092231e-03	  -9.9999436474406289e-01	   3.7288314362990888e-01	   9.2787831163179835e-01	
  -6.7944130426165128e-01	  -7.3372986450275146e-01	  -7.6719028126452260e-02	   9.9705275222694845e-01	   7.8369345732549689e-01	  -6.2114778027874307e-01	  -8.7942980723947528e-01	   4.7602858542186238e-01	   5.4679357172252141e-01	  -8.3726745423605708e-01	  -8.2303323519967025e-02	   9.9660732635154137e-01	  -4.0203357984585580e-01	  -9.1562492357751268e-01	   9.4679732471838129e-01	   3.2183043036064202e-01	   2.4824454575634217e-01	   9.6869739625036022e-01	
  -4.7512281712027676e-01	   8.7991948986921076e-01	  -5.4851661730338408e-01	  -8.3613965373139254e-01	   9.9634833802121403e-01	  -8.5381434295546385e-02	  -1.8833109848517773e-01	   9.8210559378478557e-01	  -9.2906279468673258e-01	  -3.6992205061185285e-01	   5.3827393185530070e-01	  -8.4276994149354612e-01	   7.2631535294224359e-01	   6.8736162831538983e-01	  -7.7469345101717291e-01	  -6.3233698053419518e-01	   9.5365425514444080e-01	   3.0090457232302381e-01	
   9.4674703559101681e-01	   3.2197833871181758e-01	   7.9265989880075616e-01	   6.0966407539986722e-01	   5.5414978325196573e-01	   8.3241697347050747e-01	   8.6185146311487371e-01	  -5.0716077877409993e-01	   4.8557588894649689e-01	  -8.7419451844187357e-01	  -2.4862882431184348e-02	  -9.9969087075816243e-01	  -5.2843211214763863e-01	  -8.4897556080913517e-01	   9.7925010283326352e-01	  -2.0265546156233447e-01	   6.5266053281431102e-01	   7.5765046618248677e-01	
   3.0901699437494723e-01	  -9.5105651629515364e-01	  -8.0901699437494767e-01	  -5.8778525229247280e-01	  -8.0901699437494712e-01	   5.8778525229247358e-01	  -7.9337085320792311e-01	  -6.0873860505157062e-01	   2.5887462143973583e-01	   9.6591093294073105e-01	   3.8260369463687965e-01	  -9.2391255692852736e-01	  -8.6596786074886689e-01	   5.0009965421906766e-01	  -8.2410989353771857e-01	   5.6642994568900595e-01	   3.3377974057171828e-01	   9.4265109387507551e-01	
  -9.9664360176051991e-01	   8.1862879681930303e-02	   9.8659693786036362e-01	  -1.6317623051337421e-01	  -9.6992744950958532e-01	   2.4339421251917792e-01	  -8.2155632471029660e-01	   5.7012735886686738e-01	   3.4990958934298050e-01	  -9.3678347513490368e-01	   2.4661545230727974e-01	   9.6911341889547475e-01	  -7.5512655857165356e-01	  -6.5557904217548868e-01	   7.7212658712610982e-01	  -6.3546875096497535e-01	   8.6547112189070030e-01	   5.0095881784159935e-01	
   5.0807534524663578e-01	   8.6131262823234622e-01	  -4.8371888710502364e-01	   8.7522342190887314e-01	  -9.9960662638304254e-01	   2.8046256276239082e-02	  -3.4360855261972428e-01	   9.3911296581751980e-01	  -7.6386632513315633e-01	  -6.4537449386194923e-01	   8.6855055736762743e-01	  -4.9560057435033683e-01	   1.6698352534486577e-01	   9.8595968592199579e-01	  -9.8344889079732467e-01	   1.8118575879332155e-01	   6.3429082279339821e-01	  -7.7309452987333560e-01	
   6.8803263918137425e-01	  -7.2567974163615234e-01	  -5.3222174842225620e-02	  -9.9858269567675939e-01	  -7.6126982602071291e-01	  -6.4843523345851084e-01	   9.7385468402946440e-01	  -2.2717186092003569e-01	   8.9678589121225594e-01	  -4.4246476167333360e-01	   7.7282359742772300e-01	  -6.3462090042707608e-01	   6.0844986935472023e-01	  -7.9359231125447782e-01	   5.0518979109247952e-01	  -8.6300827051421525e-01	   8.3489782577139116e-01	  -5.5040496048110221e-01	
  -6.4720400223057351e-01	  -7.6231684980507142e-01	  -1.6225395899345557e-01	   9.8674903232329036e-01	   8.5722682550721319e-01	  -5.1493899602848681e-01	  -3.8727966803006120e-01	  -9.2196228704352412e-01	  -7.0002891746105123e-01	   7.1411449692490403e-01	   9.2949360156157923e-01	   3.6883823643446217e-01	  -1.9919029436617539e-02	  -9.9980159645116751e-01	  -4.5217843516651485e-01	   8.9192749860645171e-01	   9.5347633742968185e-01	  -3.0146786555399158e-01	
  -6.7782812491315025e-01	   7.3522039762014413e-01	  -8.1098066153445655e-02	  -9.9670612703352601e-01	   7.8776922514289582e-01	   6.1597049273302162e-01	  -7.9944218851600179e-01	   6.0074302927353673e-01	   2.7821562555850921e-01	  -9.6051864411633747e-01	   3.5460757136431520e-01	   9.3501522465203857e-01	  -8.4519213139017479e-01	  -5.3446259086687586e-01	   1.0020587076824714e-01	  -9.9496672480218018e-01	   9.8356292846828619e-01	  -1.8056568262792599e-01	
   7.5144376294993431e-01	   6.5979714391897981e-01	   1.2933545775271424e-01	   9.9160089722019507e-01	  -5.5706711683683063e-01	   8.3046747518436925e-01	  -2.1488748668201185e-01	   9.7663881146895248e-01	  -9.0764673613497637e-01	  -4.1973491918534084e-01	   6.0497133852836471e-01	  -7.9624724775612177e-01	   6.4764519523295083e-01	   7.6194205888090538e-01	  -8.0585936005082681e-01	   5.9210699355646190e-01	   4.8290763684445703e-01	  -8.7567129350990036e-01	
   7.2711601666451875e-01	  -6.8651460167277101e-01	   5.7395403380153219e-02	  -9.9835152510066794e-01	  -6.4364978250325955e-01	  -7.6532016665151759e-01	   9.9551281595299468e-01	   9.4626810541933490e-02	   9.8209153345332201e-01	   1.8840440525450144e-01	   9.5985660003042794e-01	   2.8049118948378238e-01	   9.2900756016139519e-01	   3.7006074253150889e-01	   7.8881600042097977e-01	  -6.1462941475318988e-01	   6.5889062612745941e-01	  -7.5223875385502748e-01	
  -5.8778525229239564e-01	  -8.0901699437500374e-01	  -3.0901699437512958e-01	   9.5105651629509436e-01	   9.5105651629524235e-01	  -3.0901699437467417e-01	  -6.3106005655440944e-02	  -9.9800682966110776e-01	  -9.9203526410043086e-01	   1.2596044927352509e-01	   1.8831277162887908e-01	   9.8210910801267370e-01	   9.6826793043762338e-01	  -2.4991441512254081e-01	  -7.7031170624280643e-01	   6.3766752718426567e-01	   8.4449726515350443e-01	  -5.3555986513951137e-01	
  -4.2093476242840777e-01	   9.0709091373430695e-01	  -6.4562785155867985e-01	  -7.6365219654743566e-01	   9.6446917505444030e-01	  -2.6419540187105334e-01	  -9.9969387914385766e-01	  -2.4741624892196792e-02	   9.9877570399538762e-01	   4.9468101929604880e-02	  -9.9724603669971512e-01	  -7.4164292531584103e-02	   9.9510581378296448e-01	   9.8815076660113410e-02	   4.4324880864928695e-01	  -8.9639862429110617e-01	   3.9836300238781885e-01	  -9.1722784428328530e-01	
   9.4051325950289244e-01	   3.3975698476888566e-01	   7.6913038260151034e-01	   6.3909189836771851e-01	   5.0624138674361419e-01	   8.6239182414254278e-01	  -9.8570458872942279e-01	   1.6848282926684108e-01	   9.4322707248448090e-01	  -3.3214859586088230e-01	  -8.7378191839412289e-01	   4.8631796089337098e-01	   7.7935462053528859e-01	  -6.2658309540738200e-01	  -9.8431145370990036e-01	  -1.7643968401553722e-01	  -8.6982501759583464e-01	  -4.9336035386358928e-01	
   7.4632144880414597e-01	  -6.6558567822248138e-01	   1.1399140989023906e-01	  -9.9348173534858486e-01	  -5.7617298044312359e-01	  -8.1732777794914568e-01	   3.0081875935443075e-01	   9.5368132728939448e-01	  -8.1901614804092215e-01	   5.7377046738936488e-01	  -7.9356960244426056e-01	  -6.0847948698083343e-01	   3.4157490150357944e-01	  -9.3985455612175439e-01	   8.5926412534089247e-01	   5.1153217191311739e-01	  -4.1024914072316310e-01	  -9.1197348784704613e-01	
  -9.0711910437360754e-01	  -4.2087400784608231e-01	   6.4573013903915177e-01	   7.6356570610293772e-01	  -2.6438918641087278e-01	  -9.6441607105491389e-01	   7.5774460829026635e-01	  -6.5255123063789466e-01	   1.4835378278593847e-01	  -9.8893435329808554e-01	  -5.3291605023924449e-01	  -8.4616811769139766e-01	  -9.5598231026620517e-01	  -2.9342430447747342e-01	  -9.6200646217966035e-01	   2.7302667767925870e-01	  -4.1272275865273256e-01	  -9.1085669810902647e-01	
   5.0943653340041384e-01	   8.6050823263753207e-01	  -4.8094883687393808e-01	   8.7674866199476242e-01	  -9.9946234980045412e-01	   3.2787365422593535e-02	  -1.6252013549610186e-01	  -9.8670522728843835e-01	  -9.4717441111665734e-01	   3.2071893446725797e-01	   4.7038996276234118e-01	   8.8245865791686995e-01	   7.9427873014837336e-01	  -6.0755353577597382e-01	   7.6627427683328864e-01	  -6.4251360504165245e-01	  -9.3186166570308804e-01	   3.6281377591412678e-01	
   8.9237385421245841e-01	  -4.5129691370316510e-01	   5.9266219136399589e-01	  -8.0545113255096135e-01	   1.6537863369452108e-01	  -9.8623014936541731e-01	   8.4095211512065793e-01	   5.4110954535481237e-01	   4.1440091985181654e-01	   9.1009443335621409e-01	  -1.4396945500599523e-01	   9.8958213202607737e-01	  -6.5654375525193664e-01	   7.5428794066966565e-01	   9.9464474797229019e-01	   1.0335291641332327e-01	   5.0624261238439083e-01	  -8.6239110466552671e-01	
   1.6724897465284885e-01	   9.8591469229217332e-01	  -9.4405556095514143e-01	   3.2978644276208990e-01	  -4.8303362382298376e-01	  -8.7560180347943339e-01	   0.0000000000000000e+00	   0.0000000000000000e+00	   0.0000000000000000e+00	   0.0000000000000000e+00	   0.0000000000000000e+00	   0.0000000000000000e+00	   0.0000000000000000e+00	   0.0000000000000000e+00	   0.0000000000000000e+00	   0.0000000000000000e+00	   0.0000000000000000e+00	   0.0000000000000000e+00	
  -1.8025503781399246e-01	  -9.8361990694712764e-01	  -9.3501624268535233e-01	   3.5460488704270049e-01	   5.1733781417788238e-01	   8.5578127230131118e-01	   4.7625832060796902e-01	   8.7930541454700306e-01	  -5.4635602410335393e-01	   8.3755304006729947e-01	  -9.9667152559498984e-01	  -8.1522205981901005e-02	  -4.0299018985195068e-01	  -9.1520429789369362e-01	   7.7905434844441102e-01	  -6.2695639574842388e-01	  -9.5075027162524672e-01	  -3.0995793424998747e-01	
  -2.1329963074365083e-01	   9.7698683078362025e-01	  -9.0900653504924445e-01	  -4.1678186049511173e-01	   6.0108114728278927e-01	  -7.9918799689510212e-01	  -2.2210767564575529e-01	  -9.7502214355328365e-01	  -9.0133636083847990e-01	   4.3311980401552352e-01	   6.2249512380743233e-01	   7.8262367766121765e-01	   6.2481447073910901e-01	  -7.8077325591685520e-01	   9.9995927917454475e-01	  -9.0244109350642050e-03	  -9.0520830877340430e-01	  -4.2496813730866123e-01	
   9.9760676833674278e-01	  -6.9142864915481592e-02	   9.9043852846255898e-01	  -1.3795478004375508e-01	   9.7852959089472247e-01	  -2.0610637967663001e-01	  -1.7132399554234287e-01	   9.8521474235387241e-01	  -9.4129617710281455e-01	  -3.3758185225457066e-01	   4.9385723964231720e-01	  -8.6954299885219644e-01	   7.7207698605674646e-01	   6.3552901397302897e-01	  -1.0279340768821994e-01	   9.9470272711792818e-01	  -2.3903454737484955e-01	  -9.7101106335679865e-01	
  -1.5848451047548687e-01	  -9.8736146366938249e-01	  -9.4976531987869062e-01	   3.1296299646400461e-01	   4.5953069405062463e-01	   8.8816188908630345e-01	   6.4411210739480107e-01	   7.6493110350372617e-01	  -1.7023918621485637e-01	   9.8540277017923161e-01	  -8.6341834938285533e-01	   5.0448860636191328e-01	  -9.4203723895380687e-01	  -3.3550833137835501e-01	   6.5318170192987568e-01	  -7.5720120461076335e-01	  -8.5734528599347426e-01	  -5.1474174163823927e-01	
  -9.9888190430087709e-01	   4.7275165364634240e-02	   9.9553011747949294e-01	  -9.4444614411129432e-02	  -9.8995213477270660e-01	   1.4140286722326736e-01	   4.1698915219988225e-01	  -9.0891146265608480e-01	  -6.5224009389524684e-01	  -7.5801244047543148e-01	  -9.6094323976818341e-01	   2.7674553283445696e-01	  -1.4916571983103918e-01	   9.8881221069892133e-01	  -3.7355397872334828e-01	   9.2760844378431373e-01	  -4.5949185812110466e-01	  -8.8818198153329742e-01	
   5.6473849074463689e-01	   8.2526991770660685e-01	  -3.6214087414293938e-01	   9.3212337556515967e-01	  -9.7376827214549100e-01	   2.2754197890232247e-01	  -3.2876701752678661e-01	  -9.4441105890737087e-01	  -7.8382449637308316e-01	   6.2098241431258150e-01	   8.4415830140081494e-01	   5.3609398632710936e-01	   2.2876168222903487e-01	  -9.7348245631020081e-01	   5.9372664758100246e-01	  -8.0466680554887071e-01	  -9.6506142615038848e-01	   2.6202374655091509e-01	
   2.9570805004398287e-01	  -9.5527836212236339e-01	  -8.2511349827837066e-01	  -5.6496700342482764e-01	  -7.8369345732571527e-01	   6.2114778027846751e-01	  -4.7269378211500818e-01	   8.8122675194856015e-01	  -5.5312117669961836e-01	  -8.3310081255897805e-01	   9.9560766407910084e-01	  -9.3623604005380071e-02	  -3.8811392777285902e-01	   9.2161140350406034e-01	   7.0203749168268670e-01	   7.1213998642955123e-01	  -9.8159620483697518e-01	   1.9096829749894900e-01	
  -9.6283900522983090e-01	   2.7007600783488667e-01	   8.5411789998394050e-01	  -5.2007942944037255e-01	  -6.8191705310922734e-01	   7.3142951313084659e-01	   9.9377183836676741e-01	  -1.1143398614935843e-01	   9.7516493346172917e-01	  -2.2147991454436966e-01	   9.4441105890737131e-01	  -3.2876701752678550e-01	   9.0189329490683745e-01	  -4.3195889225953937e-01	  -9.2674664216213154e-01	   3.7568691917767666e-01	  -9.8693793439482547e-01	   1.6110094243198980e-01	
   5.5557023301970765e-01	   8.3146961230247474e-01	  -3.8268343236485541e-01	   9.2387953251138377e-01	  -9.8078528040315627e-01	   1.9509032201650142e-01	  -9.0059145774589211e-01	  -4.3466656903324069e-01	   6.2212994752974204e-01	   7.8291399807810336e-01	  -2.1997837496047978e-01	  -9.7550474860440661e-01	  -2.2590865677328090e-01	   9.7414848908926199e-01	  -1.3892976240052843e-01	  -9.9030223725857180e-01	  -8.6175384967035906e-01	  -5.0732662317122312e-01	
   3.0901699437487290e-01	  -9.5105651629517773e-01	  -8.0901699437503960e-01	  -5.8778525229234635e-01	  -8.0901699437480923e-01	   5.8778525229266332e-01	  -3.6085472702299154e-01	   9.3262203811895972e-01	  -7.3956773197032455e-01	  -6.7308214196208638e-01	   8.9460775109332036e-01	  -4.4685229291540146e-01	   9.3920860343459645e-02	   9.9557966632125650e-01	   7.7546602344291626e-01	   6.3138929867842275e-01	  -9.9848650974413633e-01	   5.4997180463844594e-02	
  -9.7524904250517686e-01	  -2.2110926053138483e-01	   9.0222138981452837e-01	   4.3127318924452146e-01	  -7.8453205058344055e-01	  -6.2008826920636217e-01	   9.6738049175804264e-01	  -2.5332781956580980e-01	   8.7165003166806498e-01	  -4.9012878133513166e-01	   7.1905398079389093e-01	  -6.9495422345968849e-01	   5.1954755541387743e-01	  -8.5444153554439517e-01	  -9.9945002518144255e-01	   3.3160928286372009e-02	  -8.8742377146899398e-01	  -4.6095449865658844e-01	
  -2.8348121892666028e-01	   9.5897778833289715e-01	  -8.3927679703170988e-01	  -5.4370438472040494e-01	   7.5931963780548517e-01	  -6.5071782490027652e-01	  -9.9224309177506365e-01	  -1.2431269776118076e-01	   9.6909270635067468e-01	   2.4669683114690602e-01	  -9.3090799455705053e-01	  -3.6525375517545378e-01	   8.7828134700414984e-01	   4.7814419948858117e-01	   4.0049539708866588e-01	  -9.1629877054964548e-01	   1.6206916516724004e-01	  -9.8677940072844750e-01	
   7.2822981098468320e-01	  -6.8533301568887850e-01	   6.0637315213574731e-02	  -9.9815986495334985e-01	  -6.3991400979148416e-01	  -7.6844652388606993e-01	  -4.2953381533339952e-01	   9.0305077458863470e-01	  -6.3100140297026608e-01	  -7.7578168929767599e-01	   9.7160669553049217e-01	  -2.3660183684899286e-01	  -2.0367445889911176e-01	   9.7903866869095324e-01	   3.0609118151723574e-01	   9.5200219989104151e-01	  -9.3168983982077802e-01	  -3.6325478988546456e-01	
  -9.7542978688537274e-01	   2.2031053278669241e-01	   9.0292653828648750e-01	  -4.2979491208945264e-01	  -7.8605309474249940e-01	   6.1815898622097154e-01	   8.6963053476323160e-01	  -4.9370308182896311e-01	   5.1251453398516833e-01	  -8.5867855013035332e-01	   2.1766041763669166e-02	  -9.9976309165018795e-01	  -4.7465770490793147e-01	  -8.8017047392623615e-01	  -7.3949553819694036e-01	   6.7316145833434171e-01	  -9.5703151618928262e-01	  -2.8998392545181340e-01	
   5.6892540144321846e-01	   8.2238913392181479e-01	  -3.5264777518534529e-01	   9.3575613631801857e-01	  -9.7018595557397935e-01	   2.4236173709355305e-01	  -7.2335209322490890e-01	  -6.9047936191253589e-01	   4.6476501545714574e-02	   9.9891938353606458e-01	   6.5611434386718215e-01	  -7.5466149217495992e-01	  -9.9567986960814236e-01	   9.2852556545916315e-02	   1.5630934441136421e-01	  -9.8770814963211151e-01	  -9.7937610445691137e-01	  -2.0204565330341806e-01	
   4.8785965913857227e-01	  -8.7292207726989934e-01	  -5.2398590597039219e-01	  -8.5172693414285505e-01	  -9.9912283009883518e-01	   4.1875653729751376e-02	  -6.6909778563163103e-01	   7.4317437608063952e-01	  -1.0461630652569574e-01	  -9.9451265874744987e-01	   8.0909486370623696e-01	   5.8767805942044982e-01	  -9.7811085681784338e-01	   2.0808448230241572e-01	   3.2230750251345225e-01	   9.4663502672547506e-01	  -9.7515913777069430e-01	   2.2150543113503129e-01	
  -4.2214460960296368e-01	   9.0652850401030494e-01	  -6.4358785716632272e-01	  -7.6537224283877769e-01	   9.6551889902033439e-01	  -2.6033297070206340e-01	   1.5550086506681873e-01	   9.8783575606649865e-01	  -9.5163896192694208e-01	   3.0721862922455095e-01	  -4.5146222868867630e-01	  -8.9229023084837888e-01	   8.1123342771477580e-01	  -5.8472243479973951e-01	  -9.6114512213140679e-01	  -2.7604357301520926e-01	   8.2985741817829617e-01	   5.5797550617787206e-01	
  -6.0378497422233654e-02	  -9.9817555422332060e-01	  -9.9270887409806663e-01	   1.2053668025521883e-01	   1.8025503781375082e-01	   9.8361990694717194e-01	   6.3298986515414035e-01	  -7.7416008074050369e-01	  -1.9864766122428637e-01	  -9.8007097023129974e-01	  -8.8447377773723312e-01	  -4.6658990183589216e-01	  -9.2107821338024232e-01	   3.8937761214052974e-01	  -8.1096664459223222e-01	  -5.8509238702859234e-01	   7.3452869070921367e-01	  -6.7857763190736575e-01	
  -4.0877108407109586e-01	   9.1263694908070703e-01	  -6.6581240165468214e-01	  -7.4611919007811622e-01	   9.5310079849582452e-01	  -3.0265304873174781e-01	   0.0000000000000000e+00	   0.0000000000000000e+00	   0.0000000000000000e+00	   0.0000000000000000e+00	   0.0000000000000000e+00	   0.0000000000000000e+00	   0.0000000000000000e+00	   0.0000000000000000e+00	   0.0000000000000000e+00	   0.0000000000000000e+00	   0.0000000000000000e+00	   0.0000000000000000e+00	
   9.9846134264729591e-01	  -5.5452206799721820e-02	   9.9385010552208175e-01	  -1.1073376970801152e-01	   9.8618047885217297e-01	  -1.6567456995839436e-01	  -5.0522957382984635e-01	   8.6298498117157973e-01	  -4.8948615545542379e-01	  -8.7201106851775034e-01	   9.9983533726255358e-01	   1.8146579872684067e-02	  -5.2080660723493744e-01	   8.5367469088665948e-01	  -4.5659777699028897e-01	   8.8967323779437490e-01	  -5.5230662027224997e-01	  -8.3364104817567897e-01	
  -9.5316538374206994e-01	  -3.0244958461838334e-01	   8.1704849752833475e-01	   5.7656894877082199e-01	  -6.0439930562288335e-01	  -7.9668154199942176e-01	   9.9633723082746439e-01	   8.5510949398658609e-02	   9.8537575506588004e-01	   1.7039548505857391e-01	   9.6719587142625718e-01	   2.5403178205886562e-01	   9.4193075734330667e-01	   3.3580715949881829e-01	  -9.2381140783222349e-01	  -3.8284785850131808e-01	  -9.7553691008411925e-01	  -2.1983570470587580e-01	
   8.5329088163222844e-01	   5.2143520337937899e-01	   4.5621065735341126e-01	   8.8987180881134131e-01	  -7.4730093586006879e-02	   9.9720379718121144e-01	  -2.8421468851724785e-01	  -9.5876066399860382e-01	  -8.3844402166208754e-01	   5.4498772696190578e-01	   7.6081090142892549e-01	   6.4897362987020191e-01	   4.0597675492179042e-01	  -9.1388340310084004e-01	   2.5741375968654845e-01	  -9.6630127616806749e-01	  -7.4244936396197203e-01	   6.6990218834727144e-01	
  -2.7127095898073805e-01	  -9.6250302171664415e-01	  -8.5282413362734144e-01	   5.2219823544586441e-01	   7.3396380012275075e-01	   6.7918858950174565e-01	  -8.5548687528658640e-01	   5.1782449363890892e-01	   4.6371558757521503e-01	  -8.8598411602001825e-01	   6.2081677213778171e-02	   9.9807107229611869e-01	  -5.6993570767954616e-01	  -8.2168928988506040e-01	   7.3047638490076838e-01	   6.8293795552912739e-01	  -2.6633889479191369e-01	   9.6387944947541127e-01	
  -7.0957073653679581e-01	   7.0463420996331794e-01	   6.9812602987416239e-03	  -9.9997563070538931e-01	   6.9966334051252910e-01	   7.1447267963362238e-01	   7.0861271779855228e-01	   7.0559763050491420e-01	   4.2639676517012316e-03	   9.9999090924861178e-01	  -7.0256971438599802e-01	   7.1161492144809413e-01	  -9.9996363715973047e-01	   8.5278577780627633e-03	  -9.9999907701047863e-01	  -1.3586678000474201e-03	  -5.6226191648399999e-03	   9.9998419295193219e-01	
   7.7249547654122330e-01	   6.3502026638789122e-01	   1.9349852255330349e-01	   9.8110056659329714e-01	  -4.7354200976154970e-01	   8.8077123306281546e-01	   3.1244378108999504e-01	  -9.4993625241812263e-01	  -8.0475776731637449e-01	  -5.9360334899995637e-01	  -8.1532690045373601e-01	   5.7900090275966209e-01	   2.9527012811207198e-01	   9.5541381162545513e-01	   8.4459017962752891e-01	  -5.3541332489651250e-01	  -3.6186736449661433e-01	   9.3222959109452996e-01	
  -1.2774070605471455e-01	  -9.9180759828539478e-01	  -9.6736462403328605e-01	   2.5338840575081406e-01	   3.7488438622744541e-01	   9.2707157057201983e-01	   0.0000000000000000e+00	   0.0000000000000000e+00	   0.0000000000000000e+00	   0.0000000000000000e+00	   0.0000000000000000e+00	   0.0000000000000000e+00	   0.0000000000000000e+00	   0.0000000000000000e+00	   0.0000000000000000e+00	   0.0000000000000000e+00	   0.0000000000000000e+00	   0.0000000000000000e+00	
  -4.7173791913700684e-02	   9.9888669695640797e-01	  -9.9554926671296573e-01	  -9.4242546375170780e-02	   1.4110145980920974e-01	  -9.8999514041216885e-01	   3.3470836066537402e-01	   9.4232176739195506e-01	  -7.7594062660139573e-01	   6.3080594796611844e-01	  -8.5413599087220682e-01	  -5.2004971790854149e-01	   2.0416771202113346e-01	  -9.7893592505743476e-01	  -9.5706214025807879e-01	   2.8988283785803104e-01	   9.2548321514247034e-01	   3.7878861979942835e-01	
   8.5351209988516208e-01	  -5.2107302304918945e-01	   4.5696580930075781e-01	  -8.8948426019244631e-01	  -7.3460404941136509e-02	  -9.9729813441412007e-01	   6.3687515025986197e-01	  -7.7096695323566122e-01	  -1.8878008596295651e-01	  -9.8201938837469949e-01	  -8.7733384148731708e-01	  -4.7988053782280765e-01	  -9.2872415828763755e-01	   3.7077140910933143e-01	   1.4185056586944300e-01	  -9.8988808304904796e-01	   9.4531072785650194e-01	   3.2617116334742174e-01	
  -5.6277300976929445e-01	  -8.2661148036741516e-01	  -3.6657307895041930e-01	   9.3038926143244460e-01	   9.7536787965194349e-01	  -2.2058444945932115e-01	   0.0000000000000000e+00	   0.0000000000000000e+00	   0.0000000000000000e+00	   0.0000000000000000e+00	   0.0000000000000000e+00	   0.0000000000000000e+00	   0.0000000000000000e+00	   0.0000000000000000e+00	   0.0000000000000000e+00	   0.0000000000000000e+00	   0.0000000000000000e+00	   0.0000000000000000e+00	
   1.4840461133010552e-01	   9.8892672698029571e-01	  -9.5595214267192063e-01	   2.9352257310292834e-01	  -4.3214002369692145e-01	  -9.0180652022439056e-01	   7.5774460829026680e-01	   6.5255123063789411e-01	   1.4835378278593983e-01	   9.8893435329808532e-01	  -5.3291605023924427e-01	   8.4616811769139788e-01	  -9.5598231026620439e-01	   2.9342430447747608e-01	  -5.3287255862089655e-01	   8.4619550711925851e-01	   7.5777814678249678e-01	   6.5251228360766111e-01	
   7.8094705050166402e-01	  -6.2459723367363018e-01	   2.1975659137449721e-01	  -9.7555473477784027e-01	  -4.3771052677723721e-01	  -8.9911595178174519e-01	  -1.1656004105838973e-01	  -9.9318364708067286e-01	  -9.7282751365693299e-01	   2.3153105336448895e-01	   3.4334567092755630e-01	   9.3920910890775877e-01	   8.9278674265586033e-01	  -4.5047955795789291e-01	  -7.1136697876737820e-01	  -7.0282076059218146e-01	   5.2931253822557300e-01	   8.4842691899609202e-01	
  -9.9918202279513246e-01	   4.0438661241780104e-02	   9.9672942935394515e-01	  -8.0811166677377935e-02	  -9.9264623200749336e-01	   1.2105146872849407e-01	  -3.8727966803006053e-01	   9.2196228704352445e-01	  -7.0002891746105222e-01	  -7.1411449692490303e-01	   9.2949360156157834e-01	  -3.6883823643446451e-01	  -1.9919029436614780e-02	   9.9980159645116751e-01	   3.4967996148625380e-01	  -9.3686921421027181e-01	   4.2424580269315321e-01	   9.0554707160767856e-01	
   8.1714489833498527e-01	   5.7643231616999624e-01	   3.3545156974978696e-01	   9.4205745278746345e-01	  -2.6891982061598352e-01	   9.6316256679745771e-01	   8.1625504479333477e-01	   5.7769170138529002e-01	   3.3254459630113792e-01	   9.4308753118197530e-01	  -2.7337263609420126e-01	   9.6190820863266746e-01	  -7.7882818294182643e-01	   6.2723732466709359e-01	   3.3399848013135985e-01	   9.4257361265311346e-01	   9.9999881105477695e-01	  -1.5420405417814714e-03	
   3.5888244410717418e-01	  -9.3338276784589347e-01	  -7.4240678262332205e-01	  -6.6994937802410681e-01	  -8.9175596544637692e-01	   4.5251662741914822e-01	   7.7319058558926168e-01	  -6.3417372884418244e-01	   1.9564736328773086e-01	  -9.8067431354071810e-01	  -4.7064518681038964e-01	  -8.8232256467360815e-01	  -9.2344421847711733e-01	  -3.8373268737649391e-01	  -3.1444230320680172e-01	  -9.4927658664585302e-01	   8.6941135744066556e-01	  -4.9408895105353173e-01	
  -5.3582679497916408e-01	   8.4432792550190883e-01	  -4.2577929156471372e-01	  -9.0482705246618844e-01	   9.9211470131440327e-01	   1.2533323356489456e-01	   7.0513466656312473e-01	  -7.0907341087570819e-01	  -5.5702040218218573e-03	  -9.9998448629324010e-01	  -7.1299015447435721e-01	  -7.0117404374565395e-01	  -9.9993794565431060e-01	   1.1140235214620139e-02	   2.2086043362002869e-01	   9.7530542337319792e-01	  -9.7652053044647003e-01	   2.1542435706424859e-01	
   9.1534886483348410e-01	  -4.0266171366055165e-01	   6.7572708870389586e-01	  -7.3715188502218265e-01	   3.2170318233120976e-01	  -9.4684056866928368e-01	   0.0000000000000000e+00	   0.0000000000000000e+00	   0.0000000000000000e+00	   0.0000000000000000e+00	   0.0000000000000000e+00	   0.0000000000000000e+00	   0.0000000000000000e+00	   0.0000000000000000e+00	   0.0000000000000000e+00	   0.0000000000000000e+00	   0.0000000000000000e+00	   0.0000000000000000e+00	
  -8.8941637329112821e-01	  -4.5709792705902363e-01	   5.8212297015668701e-01	   8.1310076104745899e-01	  -1.4608302856131172e-01	  -9.8927233296315076e-01	  -4.8066618702330549e-01	   8.7690365300440887e-01	  -5.3792003330495342e-01	  -8.4299587055287395e-01	   9.9778612968758840e-01	  -6.6504431454325039e-02	  -4.2128407553839559e-01	   9.0692873352748027e-01	   8.2834321884474449e-01	  -5.6022094908520503e-01	   2.6681534807142828e-02	   9.9964398447664116e-01	
   4.3086374494052282e-01	   9.0241699523880203e-01	  -6.2871286659165615e-01	   7.7763753213312847e-01	  -9.7264290532446740e-01	  -2.3230535663643029e-01	   9.8723961206059607e-01	   1.5924179218548068e-01	   9.4928410324311241e-01	   3.1441961028205601e-01	   8.8710212758144613e-01	   4.6157319597272084e-01	   8.0228061734016010e-01	   5.9694707557730076e-01	   2.8166325678559417e-01	   9.5951331922852034e-01	   5.6906825602652056e-01	   8.2229028936436699e-01	
   8.7357186667030906e-01	  -4.8669517540463852e-01	   5.2625561247569630e-01	  -8.5032642575532702e-01	   4.5872328801931678e-02	  -9.9894731064770748e-01	  -2.2407224448320784e-01	  -9.7457253668070165e-01	  -8.9958325850451504e-01	   4.3674931141147644e-01	   6.2721552414845672e-01	   7.7884573971177162e-01	   6.1850007796320239e-01	  -7.8578473741827826e-01	  -6.7006296056655867e-01	  -7.4230426974171348e-01	   2.7857654280215588e-01	   9.6041403040584461e-01	
  -3.9004196497529203e-01	  -9.2079708164079943e-01	  -6.9573453111642614e-01	   7.1829900613338360e-01	   9.3277329221092065e-01	   3.6046357005667085e-01	  -6.8880372693157432e-01	   7.2494787796445981e-01	  -5.1098851530346483e-02	  -9.9869360034611199e-01	   7.5919788568362567e-01	   6.5085986999776879e-01	  -9.9477781474455917e-01	   1.0206419201678632e-01	   9.3619224950606084e-01	   3.5148836675597322e-01	  -3.9886753123666924e-01	   9.1700855640782586e-01	
  -9.5985625661105911e-01	   2.8049236468147321e-01	   8.4264806671079084e-01	  -5.3846470234228594e-01	  -6.5778578129607268e-01	   7.5320506233343598e-01	  -1.0264891819358403e-01	   9.9471764817644959e-01	  -9.7892639918737379e-01	  -2.0421338098675734e-01	   3.0362038992903306e-01	  -9.5279308289855980e-01	   9.1659379005191499e-01	   3.9981973943049132e-01	  -1.8048249896493723e-01	  -9.8357819595971696e-01	   3.7753891168987447e-01	   9.2599372036748995e-01	
   5.6640623692436654e-01	   8.2412618862233622e-01	  -3.5836794954635687e-01	   9.3358042649679618e-01	  -9.7236992039807291e-01	   2.3344536385425468e-01	   7.2098348515869115e-01	   6.9295224520050980e-01	   3.9634371743145047e-02	   9.9921424958640681e-01	  -6.6383203021579540e-01	   7.4788169897355783e-01	  -9.9685823315305233e-01	   7.9206458038310723e-02	  -1.6271055002103765e-01	   9.8667384525579238e-01	   9.7944963544773578e-01	   2.0168889811116911e-01	
  -8.6055254513043675e-02	  -9.9629036589274278e-01	  -9.8518898634139052e-01	   1.7147204201158678e-01	   2.5561663243915539e-01	   9.6677822545838599e-01	   9.9953658654353228e-01	  -3.0440304875343663e-02	   9.9814677567819221e-01	  -6.0852396856890895e-02	   9.9583185551809394e-01	  -9.1208089199314529e-02	   9.9259397159354290e-01	  -1.2147924742999082e-01	  -1.1634275783224535e-01	  -9.9320912334713651e-01	  -5.5687992867959793e-02	  -9.9844821971414122e-01	
  -6.2681007587097093e-01	  -7.7917207905996455e-01	  -2.1421825757325541e-01	   9.7678581998423708e-01	   8.9535840043584969e-01	  -4.4534630880805171e-01	  -8.7775438566541730e-01	  -4.7911088324637946e-01	   5.4090552310974827e-01	   8.4108335797908251e-01	  -7.1810004615039766e-02	  -9.9741832910629225e-01	  -4.1484243013873906e-01	   9.0989326745315868e-01	   1.7687547007567980e-01	   9.8423323866119627e-01	   9.2349511607435508e-01	   3.8361018050465423e-01	
  -9.2676145276555155e-01	   3.7565038222778946e-01	   7.1777358066423136e-01	  -6.9627658793072178e-01	  -4.0364831998067774e-01	   9.1491422208684481e-01	   0.0000000000000000e+00	   0.0000000000000000e+00	   0.0000000000000000e+00	   0.0000000000000000e+00	   0.0000000000000000e+00	   0.0000000000000000e+00	   0.0000000000000000e+00	   0.0000000000000000e+00	   0.0000000000000000e+00	   0.0000000000000000e+00	   0.0000000000000000e+00	   0.0000000000000000e+00	
   9.4287744546091889e-01	   3.3313979474252525e-01	   7.7803575431781624e-01	   6.2821999729641420e-01	   5.2430728355596445e-01	   8.5152913773409156e-01	   7.6479887164924454e-01	   6.4426910986329500e-01	   1.6983462815191516e-01	   9.8547257652382225e-01	  -5.0502020769413702e-01	   8.6310751927009111e-01	  -9.4231239816100143e-01	   3.3473473717566621e-01	   5.0647992737322545e-01	   8.6225175161782786e-01	   9.3574328541084040e-01	  -3.5268187337673945e-01	
   5.0198314876539074e-01	  -8.6487740076590258e-01	  -4.9602583671116718e-01	  -8.6830776186498904e-01	  -9.9997637152790919e-01	  -6.8743280309308871e-03	   4.5620960302444735e-01	  -8.8987234933347381e-01	  -5.8374559621655231e-01	  -8.1193662246371290e-01	  -9.8883029645889275e-01	   1.4904578090311169e-01	  -3.1848215779556382e-01	   9.4792885554026762e-01	  -5.4062095148176181e-01	  -8.4126629958590071e-01	   9.9864001752820308e-01	   5.2135548249444684e-02	
  -7.2896862742132551e-01	  -6.8454710592878032e-01	   6.2790519529062463e-02	   9.9802672842828732e-01	   6.3742398974898062e-01	  -7.7051324277554856e-01	  -7.0072819166199340e-01	   7.1342834357075591e-01	  -1.7960002820225234e-02	  -9.9983870614149439e-01	   7.2589835225891464e-01	   6.8780199344563753e-01	  -9.9935487659739497e-01	   3.5914211964143176e-02	   9.9918417595019537e-01	  -4.0385424731318509e-02	   2.2433560192346273e-02	   9.9974833602116908e-01	
  -1.7763471000221417e-01	   9.8409649415208733e-01	  -9.3689181960485857e-01	  -3.4961939070580339e-01	   5.1048372336012537e-01	  -8.5988741599373519e-01	   4.0107653080756644e-01	   9.1604454937266411e-01	  -6.7827523287073443e-01	   7.3480793985513726e-01	  -9.4515708547254318e-01	  -3.2661611071875757e-01	  -7.9885416948301979e-02	  -9.9680405304101560e-01	  -9.7272134276346367e-01	   2.3197669997748541e-01	   8.3023111628607116e-01	   5.5741931573132997e-01	
   8.5844879360152382e-01	   5.1289927740647911e-01	   4.7386866247182319e-01	   8.8059553185737061e-01	  -4.4864830352515248e-02	   9.9899306654122477e-01	   6.0296351427993544e-01	  -7.9776876377004768e-01	  -2.7287000089438013e-01	  -9.6205091477109517e-01	  -9.3202482364162464e-01	  -3.6239443720316478e-01	  -8.5108392522380194e-01	   5.2502966794805594e-01	   9.2678832389446353e-01	  -3.7558408205472582e-01	   1.0843827894422775e-01	   9.9410318360802663e-01	
   7.0335288432021503e-01	  -7.1084085428345656e-01	  -1.0589440236868523e-02	  -9.9994393030582962e-01	  -7.1824911098809041e-01	  -6.9578604079473871e-01	   0.0000000000000000e+00	   0.0000000000000000e+00	   0.0000000000000000e+00	   0.0000000000000000e+00	   0.0000000000000000e+00	   0.0000000000000000e+00	   0.0000000000000000e+00	   0.0000000000000000e+00	   0.0000000000000000e+00	   0.0000000000000000e+00	   0.0000000000000000e+00	   0.0000000000000000e+00	
  -9.9026806874153506e-01	  -1.3917310096031663e-01	   9.6126169593817901e-01	   2.7563735581748683e-01	  -9.1354545764229156e-01	  -4.0673664307649493e-01	  -4.2953381533339952e-01	   9.0305077458863470e-01	  -6.3100140297026608e-01	  -7.7578168929767599e-01	   9.7160669553049217e-01	  -2.3660183684899286e-01	  -2.0367445889911176e-01	   9.7903866869095324e-01	   5.5103399839350486e-01	  -8.3448279348016929e-01	   2.9967324514527249e-01	   9.5404189957469976e-01	
  -1.6724897465325503e-01	   9.8591469229210438e-01	  -9.4405556095486975e-01	  -3.2978644276286778e-01	   4.8303362382406595e-01	  -8.7560180347883632e-01	   8.9992935345652036e-01	   4.3603573109015881e-01	   6.1974568242534145e-01	   7.8480270712781552e-01	   2.1552530912849469e-01	   9.7649825454276507e-01	  -2.3183057823029565e-01	   9.7275617859636687e-01	  -5.8040629527208643e-01	   8.1432704266070621e-01	   2.7938177202014691e-01	   9.6018010053472924e-01	
   7.4540094214289399e-01	   6.6661640802824973e-01	   1.1124512909502821e-01	   9.9379299718433844e-01	  -5.7955649407041043e-01	   8.1493206476418278e-01	   4.1232791666760715e-01	  -9.1103550377389286e-01	  -6.5997137827310159e-01	  -7.5129074256262640e-01	  -9.5657716359480172e-01	   2.9147921038887825e-01	  -1.2887555972060522e-01	   9.9166077370575711e-01	   9.1466083266781040e-01	  -4.0422216809995432e-01	  -2.9996159755610813e-01	   9.5395127757741771e-01	
   6.2266854386286964e-02	  -9.9805953672355485e-01	  -9.9224567768967387e-01	  -1.2429205568402124e-01	  -1.8583488864253808e-01	   9.8258098605825639e-01	   0.0000000000000000e+00	   0.0000000000000000e+00	   0.0000000000000000e+00	   0.0000000000000000e+00	   0.0000000000000000e+00	   0.0000000000000000e+00	   0.0000000000000000e+00	   0.0000000000000000e+00	   0.0000000000000000e+00	   0.0000000000000000e+00	   0.0000000000000000e+00	   0.0000000000000000e+00	
  -5.0786524524224141e-01	   8.6143652852374331e-01	  -4.8414578535007596e-01	  -8.7498734763867203e-01	   9.9962688126186916e-01	   2.7314799261002148e-02	  -3.7290210496290477e-01	   9.2787069148358958e-01	  -7.2188804022846953e-01	  -6.9200986797523312e-01	   9.1128924446038939e-01	  -4.1176681863745734e-01	   4.2244685249800899e-02	   9.9910729482280591e-01	  -6.0991768840221516e-01	  -7.9246477106184243e-01	   9.8868572637888230e-01	   1.5000178150496016e-01	
   9.6170794318403996e-01	   2.7407632516640923e-01	   8.4976433596655343e-01	   5.2716275790245515e-01	   6.7274228028305127e-01	   7.3987689808478307e-01	   9.8742171348854502e-01	   1.5810869593841387e-01	   9.5000328053730843e-01	   3.1223991892189595e-01	   8.8868602068723090e-01	   4.5851625558435183e-01	   8.0501246606329568e-01	   5.9325789458100875e-01	   9.0627745477467536e-01	   4.2268330339290222e-01	   9.9294515549398266e-01	   1.1857452585201662e-01	
   8.3344769071538538e-01	  -5.5259835942680047e-01	   3.8927010631761733e-01	  -9.2112365311475464e-01	  -1.8457514836548569e-01	  -9.8281840367682316e-01	   2.4734779919051267e-01	  -9.6892675999562006e-01	  -8.7763813247121969e-01	  -4.7932380332342134e-01	  -6.8151152029536755e-01	   7.3180738429227177e-01	   5.4049738313514017e-01	   8.4134569519553937e-01	  -3.2927588593944002e-01	  -9.4423375863119663e-01	   7.4157879001717042e-01	   6.7086578255018292e-01	
  -8.8267879832541885e-01	  -4.6997674302756148e-01	   5.5824372202641093e-01	   8.2967701355292423e-01	  -1.0282099713654377e-01	  -9.9469987561467343e-01	   0.0000000000000000e+00	   0.0000000000000000e+00	   0.0000000000000000e+00	   0.0000000000000000e+00	   0.0000000000000000e+00	   0.0000000000000000e+00	   0.0000000000000000e+00	   0.0000000000000000e+00	   0.0000000000000000e+00	   0.0000000000000000e+00	   0.0000000000000000e+00	   0.0000000000000000e+00	
   9.9242050967195083e-01	  -1.2288829066459238e-01	   9.6979693603506933e-01	  -2.4391372010813919e-01	   9.3247222940448815e-01	  -3.6124166618681142e-01	   4.8116520128538232e-01	   8.7662993849856474e-01	  -5.3696009814399503e-01	   8.4360764162090851e-01	  -9.9789822869673039e-01	  -6.4800657125742511e-02	  -4.2334770600238253e-01	  -9.0596728407957439e-01	   5.8524576898354097e-01	   8.1085596124519166e-01	   3.6979065960855018e-01	  -9.2911509947168192e-01	
  -7.8556750324455982e-01	  -6.1877596741155716e-01	   2.3423260430778295e-01	   9.7218058357446824e-01	   4.1755645895548826e-01	  -9.0865098007131084e-01	   7.6342054581084084e-01	  -6.4590174967550429e-01	   1.6562185953224437e-01	  -9.8618933255490115e-01	  -5.1054228500621601e-01	  -8.5985264738827871e-01	  -9.4513879929016298e-01	  -3.2666902221721134e-01	  -9.9938685210649902e-01	   3.5013138057916927e-02	  -2.0004989208994373e-01	  -9.7978571160984063e-01	
  -5.9063731686113330e-01	   8.0693714744773104e-01	  -3.0229511986216256e-01	  -9.5321438328820907e-01	   9.4773087385233779e-01	   3.1907082402984471e-01	  -6.9840802156276016e-01	  -7.1569982214388672e-01	  -2.4452470833582100e-02	   9.9970099363266252e-01	   7.3256362511716633e-01	  -6.8069856409074048e-01	  -9.9880415334026562e-01	  -4.8890318778211456e-02	   9.9003061283975757e-01	  -1.4085235404541166e-01	  -1.6501893297951520e-01	  -9.8629039930352269e-01	
   5.9595364466372014e-01	   8.0301883752003500e-01	  -2.8967850682405671e-01	   9.5712400590737712e-01	  -9.4122356850880207e-01	   3.3778424191124778e-01	   0.0000000000000000e+00	   0.0000000000000000e+00	   0.0000000000000000e+00	   0.0000000000000000e+00	   0.0000000000000000e+00	   0.0000000000000000e+00	   0.0000000000000000e+00	   0.0000000000000000e+00	   0.0000000000000000e+00	   0.0000000000000000e+00	   0.0000000000000000e+00	   0.0000000000000000e+00	
  -4.0768361494124489e-01	  -9.1312325022881702e-01	  -6.6758814021687751e-01	   7.4453077508036603e-01	   9.5201310753228374e-01	   3.0605725458927507e-01	   6.0701981269750105e-01	   7.9468669737997422e-01	  -2.6305389398538137e-01	   9.6478114039357532e-01	  -9.2637766361021012e-01	   3.7659583689160508e-01	  -8.6160529771825556e-01	  -5.0757887164837379e-01	   4.7817486844373136e-01	  -8.7826464985721719e-01	  -9.7311893160668095e-01	  -2.3030315879004296e-01	
   3.5940777283718378e-01	   9.3318061104172934e-01	  -7.4165210564843065e-01	   6.7078473013870044e-01	  -8.9251883585940417e-01	  -4.5101011921704603e-01	   9.6582392416691121e-01	  -2.5919904997285087e-01	   8.6563170498634312e-01	  -5.0068128717022831e-01	   7.0627169621949659e-01	  -7.0794088109052944e-01	   4.9863649735512666e-01	  -8.6681119253584327e-01	   5.8900415337279899e-01	   8.0813000644054311e-01	   1.0524509770259748e-01	   9.9444631298505537e-01	
   9.0655515104867335e-01	  -4.2208738207522517e-01	   6.4368448378576582e-01	  -7.6529098082588964e-01	   2.6051581780351107e-01	  -9.6546957936237843e-01	  -7.4212465090763913e-01	  -6.7026189099128619e-01	   1.0149799496957035e-01	   9.9483574373720463e-01	   5.9147632273840334e-01	  -8.0632236707154303e-01	  -9.7939631403431415e-01	   2.0194766662677516e-01	  -9.5568601187382052e-01	  -2.9438791875467951e-01	  -3.8986783812721676e-01	   9.2087082090487060e-01	
  -6.7944130426118043e-01	  -7.3372986450318756e-01	  -7.6719028127731903e-02	   9.9705275222684997e-01	   7.8369345732669293e-01	  -6.2114778027723394e-01	   0.0000000000000000e+00	   0.0000000000000000e+00	   0.0000000000000000e+00	   0.0000000000000000e+00	   0.0000000000000000e+00	   0.0000000000000000e+00	   0.0000000000000000e+00	   0.0000000000000000e+00	   0.0000000000000000e+00	   0.0000000000000000e+00	   0.0000000000000000e+00	   0.0000000000000000e+00	
  -3.3604939321608857e-01	   9.4184436363928981e-01	  -7.7414161063819742e-01	  -6.3301245380995275e-01	   8.5634903025267195e-01	  -5.1639746163716593e-01	   2.4846864898546986e-01	   9.6863993850725327e-01	  -8.7652666094267073e-01	   4.8135331374853163e-01	  -6.8404743947381064e-01	  -7.2943752340369994e-01	   5.3659797468661530e-01	  -8.4383802566738042e-01	  -9.9580580520375317e-01	  -9.1492066992197876e-02	   8.2881032775417629e-01	   5.5952966016826566e-01	
   9.9806559713357623e-01	   6.2169637431771715e-02	   9.9226987236320408e-01	   1.2409875261383833e-01	   9.8263524822210124e-01	   1.8554775383035330e-01	   1.5145336322619798e-01	  -9.8846440440082284e-01	  -9.5412375753494671e-01	  -2.9941251695177057e-01	  -4.4046386725156828e-01	   8.9777033903208947e-01	   8.2070428938521145e-01	   5.7135319145403851e-01	   2.1261286504205493e-01	  -9.7713651534399681e-01	   8.9707917770432494e-02	   9.9596811670318708e-01	
  -5.5745400750669005e-01	  -8.3020782308692509e-01	  -3.7849005902946220e-01	   9.2560535608642314e-01	   9.7943560792152495e-01	  -2.0175700715314193e-01	  -8.7111446151563321e-01	   4.9108002905669912e-01	   5.1768081012334310e-01	  -8.5557383014561594e-01	  -3.0804018779511857e-02	   9.9952544361163287e-01	  -4.6401315766007845e-01	  -8.8582830702022797e-01	   8.9330472945354800e-01	   4.4945151055027444e-01	   7.7907765684295971e-02	   9.9696057095859159e-01	
  -6.3502026638760845e-01	   7.7249547654145578e-01	  -1.9349852255402164e-01	  -9.8110056659315548e-01	   8.8077123306333560e-01	   4.7354200976058225e-01	   5.6591927062382263e-01	  -8.2446065954452952e-01	  -3.5947075827320119e-01	  -9.3315635021495180e-01	  -9.7278212928894758e-01	  -2.3172166263873836e-01	  -7.4156154789297957e-01	   6.7088484159844319e-01	   2.7752192409911286e-01	   9.6071930429461350e-01	  -9.9626233606995518e-01	  -8.6379151005527538e-02	
   9.8110056659322631e-01	  -1.9349852255366268e-01	   9.2511664353909939e-01	  -3.7968302022470130e-01	   8.3416435968884250e-01	  -5.5151592998290022e-01	   0.0000000000000000e+00	   0.0000000000000000e+00	   0.0000000000000000e+00	   0.0000000000000000e+00	   0.0000000000000000e+00	   0.0000000000000000e+00	   0.0000000000000000e+00	   0.0000000000000000e+00	   0.0000000000000000e+00	   0.0000000000000000e+00	   0.0000000000000000e+00	   0.0000000000000000e+00	
  -9.2957781034864762e-01	   3.6862595473923659e-01	   7.2822981098517259e-01	  -6.8533301568835847e-01	  -4.2431473590376567e-01	   9.0551477342720232e-01	   1.7428254811542337e-02	   9.9984811643280302e-01	  -9.9939251186844791e-01	   3.4851215492063090e-02	  -5.2263589518723660e-02	  -9.9863332470462773e-01	   9.9757078555745160e-01	  -6.9660087584562991e-02	  -3.8477088546018123e-01	  -9.2301211568548114e-01	   3.5236904756835763e-01	   9.3586112982416814e-01	
   5.2234739126327812e-01	   8.5273278513286199e-01	  -4.5430640568089559e-01	   8.9084549151763992e-01	  -9.9695892294650290e-01	   7.7928851892922077e-02	   7.0325990532278471e-01	   7.1093284181094618e-01	  -1.0851011130775684e-02	   9.9994112604564866e-01	  -7.1852206744375635e-01	   6.9550416145149707e-01	  -9.9976451111487952e-01	  -2.1700744577683409e-02	  -2.3888976531445194e-01	   9.7104669302150759e-01	   9.7358171916528513e-01	   2.2833886245483451e-01	
   7.1630194342490272e-01	  -6.9779045984142507e-01	   2.6176948308584948e-02	  -9.9965732497553861e-01	  -6.7880074553215741e-01	  -7.3432250943641053e-01	  -1.0615652336141594e-01	  -9.9434943181349345e-01	  -9.7746158509563430e-01	   2.1111335737543957e-01	   3.1368437054759785e-01	   9.4952731170522808e-01	   9.1086230067533991e-01	  -4.1271039387011654e-01	  -7.6988767125921120e-01	  -6.3817942119992299e-01	   6.1780742327718408e-01	   7.8632943970298252e-01	
   2.8572084468549031e-01	   9.5831289196807212e-01	  -8.3672719782441984e-01	   5.4761993793222519e-01	  -7.6386164815292346e-01	  -6.4538002950284989e-01	   0.0000000000000000e+00	   0.0000000000000000e+00	   0.0000000000000000e+00	   0.0000000000000000e+00	   0.0000000000000000e+00	   0.0000000000000000e+00	   0.0000000000000000e+00	   0.0000000000000000e+00	   0.0000000000000000e+00	   0.0000000000000000e+00	   0.0000000000000000e+00	   0.0000000000000000e+00	
  -5.6640623692436654e-01	  -8.2412618862233611e-01	  -3.5836794954635665e-01	   9.3358042649679629e-01	   9.7236992039807257e-01	  -2.3344536385425591e-01	   2.5217230848145283e-01	   9.6768234810558318e-01	  -8.7281825367026999e-01	   4.8804538319707547e-01	  -6.9237349630701750e-01	  -7.2153928625653940e-01	   5.2362340788003947e-01	  -8.5194983814781833e-01	   6.5466039703785683e-01	  -7.5592312079353385e-01	  -9.4032433364487711e-01	   3.4027951386370275e-01	
  -4.2245313933223949e-01	   9.0638476656899714e-01	  -6.4306669013667084e-01	  -7.6581018015998392e-01	   9.6578422342869763e-01	  -2.5934693708665135e-01	   5.2247827816807246e-01	  -8.5265259563466189e-01	  -4.5403289768505251e-01	  -8.9098492008547181e-01	  -9.9692293139636623e-01	  -7.8387938205288124e-02	  -5.8770825563942930e-01	   8.0907293012018344e-01	   5.5210873501376678e-01	   8.3377211798038564e-01	  -9.9355391270377791e-01	   1.1336058640909445e-01	
   9.1709669937984595e-01	  -3.9866482662330832e-01	   6.8213271202681502e-01	  -7.3122839331014911e-01	   3.3406661809778498e-01	  -9.4254946537182260e-01	  -7.0840859999304540e-01	  -7.0580256124208940e-01	   3.6854890882131747e-03	   9.9999320856202856e-01	   7.0318693566250390e-01	  -7.1100501651787074e-01	  -9.9997283434036133e-01	   7.3709281168852754e-03	  -9.3105784457378371e-01	  -3.6487160763427462e-01	  -3.6830053315805494e-01	   9.2970679102364984e-01	
  -9.7979065204223081e-01	  -2.0002569377622484e-01	   9.1997944365867990e-01	   3.9196660986041387e-01	  -8.2298386589334227e-01	  -5.6806474673161078e-01	   0.0000000000000000e+00	   0.0000000000000000e+00	   0.0000000000000000e+00	   0.0000000000000000e+00	   0.0000000000000000e+00	   0.0000000000000000e+00	   0.0000000000000000e+00	   0.0000000000000000e+00	   0.0000000000000000e+00	   0.0000000000000000e+00	   0.0000000000000000e+00	   0.0000000000000000e+00	
   2.4977647816682011e-01	   9.6830352212236637e-01	  -8.7522342190916003e-01	   4.8371888710450450e-01	  -6.8699692603398610e-01	  -7.2666032203489261e-01	   0.0000000000000000e+00	   0.0000000000000000e+00	   0.0000000000000000e+00	   0.0000000000000000e+00	   0.0000000000000000e+00	   0.0000000000000000e+00	   0.0000000000000000e+00	   0.0000000000000000e+00	   0.0000000000000000e+00	   0.0000000000000000e+00	   0.0000000000000000e+00	   0.0000000000000000e+00	
   5.7848604701428119e-01	  -8.1569227862582516e-01	  -3.3070778681958168e-01	  -9.4373320368465052e-01	  -9.6110572764248403e-01	  -2.7618070224548874e-01	   0.0000000000000000e+00	   0.0000000000000000e+00	   0.0000000000000000e+00	   0.0000000000000000e+00	   0.0000000000000000e+00	   0.0000000000000000e+00	   0.0000000000000000e+00	   0.0000000000000000e+00	   0.0000000000000000e+00	   0.0000000000000000e+00	   0.0000000000000000e+00	   0.0000000000000000e+00	
  -8.8744929075522361e-01	   4.6090536592455794e-01	   5.7513248732389877e-01	  -8.1806028019005150e-01	  -1.3335254517653947e-01	   9.9106866497480339e-01	   0.0000000000000000e+00	   0.0000000000000000e+00	   0.0000000000000000e+00	   0.0000000000000000e+00	   0.0000000000000000e+00	   0.0000000000000000e+00	   0.0000000000000000e+00	   0.0000000000000000e+00	   0.0000000000000000e+00	   0.0000000000000000e+00	   0.0000000000000000e+00	   0.0000000000000000e+00	
   7.5782385220827309e-01	  -6.5245920104188382e-01	   1.4859398195157317e-01	  -9.8889829028458509e-01	  -5.3260772457325911e-01	  -8.4636222252939397e-01	   0.0000000000000000e+00	   0.0000000000000000e+00	   0.0000000000000000e+00	   0.0000000000000000e+00	   0.0000000000000000e+00	   0.0000000000000000e+00	   0.0000000000000000e+00	   0.0000000000000000e+00	   0.0000000000000000e+00	   0.0000000000000000e+00	   0.0000000000000000e+00	   0.0000000000000000e+00	
  -4.1166194381935567e-01	   9.1133662496953871e-01	  -6.6106888802173935e-01	  -7.5032521301746291e-01	   9.5593575070241399e-01	  -2.9357595359465694e-01	   9.1417483665156918e-01	   4.0532008096450983e-01	   6.7143126393384645e-01	   7.4106683761466319e-01	   3.1343629540739215e-01	   9.4960922948404936e-01	  -9.8360115624394964e-02	   9.9515088687814357e-01	  -7.4571402486530347e-01	   6.6626615786725174e-01	  -6.9479556281503594e-03	   9.9997586266498917e-01	
   9.8858555573667295e-01	  -1.5066054224253086e-01	   9.5460280202237313e-01	  -2.9788167176084174e-01	   8.9882752735347293e-01	  -4.3830249380039099e-01	  -2.9919885350796255e-01	  -9.5419078074540253e-01	  -8.2096009211904153e-01	   5.7098557525378424e-01	   7.9045949018358019e-01	   6.1251432177436838e-01	   3.4795094570421031e-01	  -9.3751274091798120e-01	  -4.3954256530086999e-01	  -8.9822176175415080e-01	  -1.5202476444101837e-01	   9.8837668476985685e-01	
  -4.3077074522461578e-01	  -9.0246139255850122e-01	  -6.2887313011725832e-01	   7.7750793321774014e-01	   9.7257103904931208e-01	   2.3260604893798781e-01	   0.0000000000000000e+00	   0.0000000000000000e+00	   0.0000000000000000e+00	   0.0000000000000000e+00	   0.0000000000000000e+00	   0.0000000000000000e+00	   0.0000000000000000e+00	   0.0000000000000000e+00	   0.0000000000000000e+00	   0.0000000000000000e+00	   0.0000000000000000e+00	   0.0000000000000000e+00	
  -3.5858327990834904e-01	   9.3349774042049538e-01	  -7.4283606274034120e-01	  -6.6947336309402772e-01	   8.9132046353162053e-01	  -4.5337383172143630e-01	   3.4550926059519455e-01	   9.3841534026408691e-01	  -7.6124670168592390e-01	   6.4846238069166517e-01	  -8.7154483065526300e-01	  -4.9031582491093328e-01	   1.5899308165539597e-01	  -9.8727969693786399e-01	  -9.9990244361538883e-01	  -1.3967936568235471e-02	   7.5211475580952203e-01	   6.5903216468817594e-01	
   9.4426316827832490e-01	  -3.2919153851971922e-01	   7.8326586193404046e-01	  -6.2168689026609258e-01	   5.3495504050985598e-01	  -8.4488052683980019e-01	   9.3887228619695584e-01	  -3.4426563902210944e-01	   7.6296233957739723e-01	  -6.4644293513548767e-01	   4.9377610588546167e-01	  -8.6958907379094263e-01	   1.6422306322683128e-01	  -9.8642322838850272e-01	   7.7321318420388929e-01	  -6.3414617539908125e-01	   9.9987185494221431e-01	   1.6008550665677183e-02	
  -9.9645663139598661e-01	  -8.4108155056229955e-02	   9.8585163650607432e-01	   1.6762025772052444e-01	  -9.6826017014214061e-01	  -2.4994447966761144e-01	   7.4319310458572807e-01	  -6.6907698308657049e-01	   1.0467198140754602e-01	  -9.9450680053392215e-01	  -5.8761011493489923e-01	  -8.0914421015428051e-01	  -9.7808755261643665e-01	  -2.0819399467032956e-01	  -7.9683452811021993e-01	   6.0419759583381594e-01	  -6.8428486683421996e-01	  -7.2921479758825092e-01	
   2.2535506441670722e-01	   9.7427670347891504e-01	  -8.9843018988348344e-01	   4.3911637854437613e-01	  -6.3028665104692116e-01	  -7.7636250393231676e-01	   0.0000000000000000e+00	   0.0000000000000000e+00	   0.0000000000000000e+00	   0.0000000000000000e+00	   0.0000000000000000e+00	   0.0000000000000000e+00	   0.0000000000000000e+00	   0.0000000000000000e+00	   0.0000000000000000e+00	   0.0000000000000000e+00	   0.0000000000000000e+00	   0.0000000000000000e+00	
   7.5174282388089708e-01	  -6.5945638729454625e-01	   1.3023454651285091e-01	  -9.9148321362219349e-01	  -5.5593705235605995e-01	  -8.3122439438316265e-01	  -5.2752878987993612e-01	   8.4953715389487827e-01	  -4.4342675169562029e-01	  -8.9631061350442054e-01	   9.9536954532469923e-01	   9.6122152702181968e-02	  -6.0674543176134144e-01	   7.9489620771314751e-01	   1.6366672019719178e-01	   9.8651568902876252e-01	  -9.5679868456282302e-01	  -2.9075122909258955e-01	
  -8.6713729318925126e-01	  -4.9806918672049816e-01	   5.0385417047916314e-01	   8.6378873278756907e-01	  -6.6841899135828510e-03	  -9.9997766055307413e-01	   0.0000000000000000e+00	   0.0000000000000000e+00	   0.0000000000000000e+00	   0.0000000000000000e+00	   0.0000000000000000e+00	   0.0000000000000000e+00	   0.0000000000000000e+00	   0.0000000000000000e+00	   0.0000000000000000e+00	   0.0000000000000000e+00	   0.0000000000000000e+00	   0.0000000000000000e+00	
  -1.2103749786451543e-01	   9.9264793563009912e-01	  -9.7069984822139488e-01	  -2.4029524477808753e-01	   3.5601965947688025e-01	  -9.3447846527673728e-01	  -8.9782375842742834e-01	  -4.4035496909112620e-01	   6.1217500239350664e-01	   7.9072230678317790e-01	  -2.0142676450108818e-01	  -9.7950357760583151e-01	  -2.5048353288902037e-01	   9.6812086009518206e-01	   5.4578779225613339e-01	  -8.3792343673164782e-01	  -3.2844710976939145e-01	  -9.4452236399363954e-01	
   8.4056660349578138e-01	  -5.4170821028258920e-01	   4.1310442982486828e-01	  -9.1068366080602903e-01	  -1.4608302856187783e-01	  -9.8927233296306716e-01	  -3.3088980611638752e-01	   9.4366939984735088e-01	  -7.8102387241651894e-01	  -6.2450116950691537e-01	   8.4775548154873193e-01	  -5.3038725805214981e-01	   2.1999657856898983e-01	   9.7550064347387200e-01	   2.3305854123112427e-01	   9.7246270692465131e-01	  -7.8932838214838286e-01	  -6.1397125758052917e-01	
  -9.1137600015066567e-01	  -4.1157476398507942e-01	   6.6121242730125229e-01	   7.5019872432735191e-01	  -2.9385027433678973e-01	  -9.5585146140610855e-01	   9.0874019683198626e-01	  -4.1736225831016743e-01	   6.5161749067647412e-01	  -7.5854772153404770e-01	   2.7556181664102181e-01	  -9.6128335323644287e-01	  -1.5078929168899036e-01	  -9.8856592572874602e-01	  -9.9997977872515120e-01	   6.3594135576908670e-03	  -6.5642823280457729e-01	  -7.5438847762744876e-01	
  -4.8825278033368530e-01	   8.7270225306024396e-01	  -5.2321844499285219e-01	  -8.5219860292027105e-01	   9.9917850131294017e-01	  -4.0525578515634826e-02	  -8.3685907798009296e-01	  -5.4741838076768001e-01	   4.0066623279538249e-01	   9.1622408279719236e-01	   1.6625672967029165e-01	  -9.8608250153794919e-01	  -6.7893313979511272e-01	   7.3420010330151131e-01	   8.8633202583380966e-01	  -4.6305025643156172e-01	  -6.9134482691280197e-02	  -9.9760734926272920e-01	
   9.9738121017229397e-01	   7.2323727747195241e-02	   9.8953855680949920e-01	   1.4426865420933821e-01	   9.7651311643331307e-01	   2.1545796210328066e-01	  -8.7825469903546685e-02	   9.9613587769752632e-01	  -9.8457337367244246e-01	  -1.7497220309313433e-01	   2.6076670829815130e-01	  -9.6540184578409982e-01	   9.3876945628946995e-01	   3.4454594459661408e-01	  -1.5963973347415911e-01	   9.8717534181942546e-01	  -1.5551213438540424e-02	  -9.9987907256857267e-01	
   2.7022102179513019e-01	  -9.6279831708411068e-01	  -8.5396119875999155e-01	  -5.2033669005020022e-01	  -7.3173755719976852e-01	   6.8158649295838858e-01	   9.1516669342120183e-01	  -4.0307558007463551e-01	   6.7506015349499227e-01	  -7.3776269163147412e-01	   3.2041844364763850e-01	  -9.4727610598516898e-01	  -8.8587578326635094e-02	  -9.9606839171124306e-01	  -1.4078321114441295e-01	  -9.9004044738579633e-01	   6.3537776916270861e-01	  -7.7220145716893063e-01	
  -9.8518898634126262e-01	   1.7147204201232155e-01	   9.4119467761624931e-01	  -3.3786473451197097e-01	  -8.6932027443982562e-01	   4.9424918861629541e-01	   0.0000000000000000e+00	   0.0000000000000000e+00	   0.0000000000000000e+00	   0.0000000000000000e+00	   0.0000000000000000e+00	   0.0000000000000000e+00	   0.0000000000000000e+00	   0.0000000000000000e+00	   0.0000000000000000e+00	   0.0000000000000000e+00	   0.0000000000000000e+00	   0.0000000000000000e+00	
   9.9009301225110757e-01	   1.4041305883545252e-01	   9.6056834581694350e-01	   2.7804397676357034e-01	   9.1201100171481475e-01	   4.1016573814878815e-01	   2.6310790418198027e-01	   9.6476641253567996e-01	  -8.6154846151393183e-01	   5.0767533765486106e-01	  -7.1646832430226026e-01	  -6.9761962434518088e-01	   4.8453150307404563e-01	  -8.7477381221022277e-01	   1.2503549435277173e-01	   9.9215226913612309e-01	   3.9596710044445349e-01	  -9.1826469787616904e-01	
   3.0901699437553937e-01	  -9.5105651629496124e-01	  -8.0901699437421570e-01	  -5.8778525229348022e-01	  -8.0901699437604546e-01	   5.8778525229096179e-01	   9.9073845921441206e-01	  -1.3578403968601294e-01	   9.6312538913309453e-01	  -2.6905294052885809e-01	   9.1767226890559495e-01	  -3.9733815180732085e-01	   8.5522103038554953e-01	  -5.1826343608851955e-01	   1.7701672512645517e-01	  -9.8420784340783685e-01	   4.3529331663092674e-01	  -9.0028869175195558e-01	
  -8.2477037114886642e-01	  -5.6546780180215483e-01	   3.6049233025007793e-01	   9.3276217753019375e-01	   2.3012358511551301e-01	  -9.7316141290825087e-01	  -7.8060999621194938e-01	  -6.2501842677954733e-01	   2.1870393237203936e-01	   9.7579126352156198e-01	   4.3916504457099687e-01	  -8.9840640226289259e-01	  -9.0433717993001284e-01	   4.2681877301289306e-01	   2.9039620042137310e-01	   9.5690649845260722e-01	   9.9725179217511639e-01	  -7.4086861207088420e-02	
   1.8738131458515239e-01	   9.8228725072879786e-01	  -9.2977648588868034e-01	   3.6812455268359467e-01	  -5.3582679497752117e-01	  -8.4432792550295144e-01	  -4.5346750725190493e-01	   8.9127280889004101e-01	  -5.8873443973348716e-01	  -8.0832651785754062e-01	   9.8741138489048741e-01	  -1.5817318669309829e-01	  -3.0678351894339401e-01	   9.5177931922515957e-01	  -9.6045725472444565e-01	  -2.7842748040949789e-01	   7.9051457946341752e-01	  -6.1244322157713205e-01	
   9.7899317230952165e-01	  -2.0389303217947186e-01	   9.1685526285732166e-01	  -3.9921977277037707e-01	   8.1619691235721781e-01	  -5.7777383140684391e-01	   9.9824756754266664e-01	   5.9175957069988717e-02	   9.9299641220970170e-01	   1.1814451040425100e-01	   9.8426493859119313e-01	   1.7669898318913696e-01	   9.7208374932267960e-01	   2.3463414990738604e-01	   9.8934311821798104e-01	  -1.4560286547565612e-01	   9.6521198757973647e-01	  -2.6146858134845674e-01	
  -1.3658673765362516e-02	  -9.9990671596453007e-01	  -9.9962688126194277e-01	   2.7314799258309031e-02	   4.0965828681849815e-02	   9.9916054810045885e-01	  -9.3702484606818814e-01	  -3.4926270606935450e-01	   7.5603112429822339e-01	   6.5453566678399144e-01	  -4.7981504966841548e-01	  -8.7736965875946271e-01	   1.4316612181527147e-01	   9.8969867210397677e-01	  -3.3643160875220834e-01	   9.4170790196982046e-01	   3.6202864211717756e-01	   9.3216697124860226e-01	
  -6.5403129230450024e-02	   9.9785892323858338e-01	  -9.9144486137373011e-01	  -1.3052619222066156e-01	   1.9509032201703339e-01	  -9.8078528040305046e-01	  -8.4101774273658225e-01	   5.4100753821205105e-01	   4.1462168719547216e-01	  -9.0999387718114899e-01	   1.4360935182704371e-01	   9.8963445476995004e-01	  -6.5617771301436012e-01	  -7.5460639338879454e-01	  -4.8484400743093198e-01	  -8.7460064512800029e-01	   5.9485439165753617e-01	  -8.0383347325533949e-01	
